Name
Date of Birth,"20 Jul 2000"
Recorded Date,2025-03-29 09:43:01 +0200
Classification,Sinus Rhythm
Symptoms,
Software Version,1.90
Device,"Watch7,10"
Sample Rate,512 hertz


Lead,Lead I
Unit,µV

4.922
4.766
4.827
5.08
5.53
6.135
6.835
7.593
8.378
9.182
10.012
10.854
11.676
12.444
13.115
13.666
14.087
14.371
14.514
14.512
14.365
14.082
13.68
13.168
12.554
11.846
11.049
10.175
9.238
8.253
7.235
6.195
5.144
4.092
3.047
2.016
1.005
0.02
-0.938
-1.863
-2.752
-3.6
-4.405
-5.162
-5.87
-6.528
-7.135
-7.693
-8.202
-8.665
-9.084
-9.463
-9.805
-10.115
-10.396
-10.653
-10.89
-11.112
-11.325
-11.533
-11.742
-11.956
-12.18
-12.42
-12.677
-12.958
-13.265
-13.601
-13.967
-14.366
-14.799
-15.265
-15.766
-16.3
-16.865
-17.459
-18.08
-18.725
-19.389
-20.067
-20.754
-21.444
-22.13
-22.807
-23.467
-24.102
-24.706
-25.272
-25.793
-26.261
-26.67
-27.014
-27.285
-27.478
-27.588
-27.611
-27.541
-27.377
-27.116
-26.756
-26.298
-25.743
-25.092
-24.35
-23.519
-22.605
-21.614
-20.553
-19.429
-18.251
-17.027
-15.767
-14.48
-13.179
-11.874
-10.578
-9.304
-8.063
-6.87
-5.736
-4.675
-3.702
-2.827
-2.063
-1.417
-0.901
-0.526
-0.305
-0.249
-0.361
-0.642
-1.09
-1.704
-2.478
-3.402
-4.454
-5.613
-6.856
-8.168
-9.537
-10.953
-12.399
-13.848
-15.271
-16.641
-17.953
-19.207
-20.399
-21.527
-22.594
-23.62
-24.662
-25.779
-27.009
-28.377
-29.887
-31.531
-33.326
-35.298
-37.466
-39.858
-42.479
-45.301
-48.323
-51.562
-54.993
-58.544
-62.011
-65.048
-67.355
-68.711
-68.924
-67.844
-65.315
-61.261
-56.016
-50.227
-44.543
-39.158
-33.573
-27.243
-20.391
-14.811
-12.804
-15.044
-19.108
-18.796
-7.557
17.907
56.015
100.268
143.796
182.358
214.797
242.469
265.948
284.221
295.521
297.679
289.569
271.129
242.887
206.711
165.347
121.484
77.162
32.407
-13.604
-60.468
-105.686
-142.655
-164.143
-166.138
-148.386
-118.477
-87.209
-62.384
-49.34
-46.198
-46.928
-48.2
-47.69
-45.927
-45.712
-47.516
-50.903
-55.238
-59.08
-61.722
-62.927
-62.541
-60.896
-58.587
-56.301
-54.449
-53.145
-52.436
-52.342
-52.887
-54.075
-55.729
-57.505
-59.151
-60.542
-61.626
-62.429
-62.956
-63.173
-63.082
-62.728
-62.159
-61.419
-60.532
-59.488
-58.286
-56.945
-55.49
-53.96
-52.388
-50.793
-49.181
-47.555
-45.917
-44.268
-42.605
-40.921
-39.196
-37.415
-35.566
-33.642
-31.633
-29.527
-27.305
-24.951
-22.451
-19.793
-16.967
-13.961
-10.761
-7.362
-3.764
0.029
4.011
8.172
12.5
16.975
21.57
26.263
31.034
35.865
40.747
45.657
50.57
55.463
60.31
65.096
69.813
74.456
79.022
83.522
87.976
92.412
96.87
101.369
105.912
110.497
115.113
119.758
124.44
129.155
133.897
138.644
143.361
148.002
152.514
156.814
160.793
164.336
167.321
169.654
171.272
172.131
172.193
171.389
169.641
166.863
162.981
157.976
151.835
144.531
136.107
126.673
116.43
105.71
94.817
83.882
72.999
62.205
51.397
40.529
29.43
17.645
4.842
-9.045
-23.899
-39.216
-54.217
-68.283
-80.608
-90.078
-95.786
-97.031
-93.553
-85.961
-75.248
-62.35
-48.624
-35.476
-24.067
-15.784
-10.892
-8.727
-9.321
-12.075
-17.116
-25.041
-33.597
-40.873
-44.787
-43.245
-38.477
-32.645
-27.671
-25.958
-26.394
-27.891
-30.322
-32.611
-35.528
-40.588
-47.032
-53.789
-59.177
-59.4
-54.524
-48.34
-44.126
-47.58
-60.132
-75.961
-90.765
-99.314
-98.944
-94.741
-90.235
-87.97
-90.2
-94.306
-98.397
-102.2
-104.831
-106.997
-109.379
-111.7
-114.015
-116.309
-118.449
-120.517
-122.591
-124.661
-126.735
-128.833
-130.931
-132.982
-134.962
-136.846
-138.615
-140.27
-141.811
-143.228
-144.524
-145.707
-146.785
-147.762
-148.645
-149.434
-150.134
-150.756
-151.31
-151.809
-152.262
-152.678
-153.064
-153.428
-153.778
-154.119
-154.454
-154.785
-155.117
-155.452
-155.796
-156.155
-156.532
-156.931
-157.358
-157.816
-158.311
-158.844
-159.418
-160.035
-160.697
-161.404
-162.157
-162.956
-163.801
-164.691
-165.626
-166.603
-167.621
-168.679
-169.775
-170.905
-172.068
-173.262
-174.484
-175.733
-177.005
-178.3
-179.613
-180.945
-182.292
-183.651
-185.022
-186.4
-187.783
-189.168
-190.553
-191.934
-193.308
-194.672
-196.023
-197.358
-198.674
-199.969
-201.24
-202.485
-203.702
-204.889
-206.044
-207.165
-208.251
-209.3
-210.311
-211.282
-212.212
-213.101
-213.946
-214.748
-215.504
-216.215
-216.88
-217.499
-218.07
-218.594
-219.07
-219.499
-219.88
-220.215
-220.503
-220.747
-220.946
-221.102
-221.217
-221.292
-221.328
-221.327
-221.29
-221.219
-221.115
-220.978
-220.81
-220.611
-220.382
-220.124
-219.837
-219.52
-219.175
-218.799
-218.392
-217.954
-217.483
-216.977
-216.433
-215.851
-215.228
-214.562
-213.849
-213.089
-212.277
-211.41
-210.486
-209.501
-208.452
-207.334
-206.144
-204.879
-203.535
-202.109
-200.598
-199
-197.311
-195.53
-193.655
-191.686
-189.621
-187.461
-185.206
-182.858
-180.419
-177.891
-175.281
-172.591
-169.83
-167.004
-164.121
-161.188
-158.214
-155.21
-152.184
-149.145
-146.102
-143.066
-140.047
-137.055
-134.102
-131.199
-128.358
-125.589
-122.906
-120.319
-117.84
-115.476
-113.236
-111.127
-109.154
-107.326
-105.653
-104.142
-102.793
-101.608
-100.584
-99.714
-98.991
-98.399
-97.911
-97.503
-97.151
-96.832
-96.535
-96.243
-95.936
-95.59
-95.177
-94.671
-94.06
-93.338
-92.499
-91.54
-90.464
-89.296
-88.091
-86.902
-85.775
-84.732
-83.778
-82.925
-82.201
-81.639
-81.274
-81.132
-81.211
-81.521
-82.087
-82.874
-83.818
-84.768
-85.425
-85.506
-84.798
-83.044
-80.026
-75.737
-70.157
-63.427
-56.167
-48.839
-41.734
-35.464
-29.842
-24.251
-19.005
-13.554
-7.816
-2.21
5.792
18.449
38.192
67.438
103.972
145.04
187.636
228.139
265.997
300.129
328.6
350.248
363.011
365.704
358.362
340.871
313.951
279.059
238.278
194.823
150.873
107.549
65.653
24.781
-13.116
-43.884
-64.528
-72.105
-66.57
-51.831
-31.08
-6.966
17.517
40.655
60.127
72.287
76.419
74.549
69.143
64.06
61.002
58.642
56.424
53.887
51.301
50.215
51.19
53.894
57.833
62.246
66.508
70.4
73.717
76.246
77.99
79.061
79.646
80.033
80.494
81.161
82.102
83.352
84.883
86.679
88.724
90.955
93.315
95.768
98.296
100.897
103.575
106.312
109.078
111.838
114.564
117.244
119.875
122.457
124.995
127.493
129.958
132.411
134.865
137.335
139.833
142.366
144.948
147.593
150.322
153.157
156.12
159.234
162.516
165.974
169.614
173.44
177.448
181.629
185.967
190.442
195.033
199.729
204.518
209.393
214.342
219.344
224.381
229.433
234.489
239.545
244.6
249.654
254.723
259.829
265.007
270.299
275.733
281.315
287.045
292.905
298.878
304.948
311.085
317.25
323.395
329.459
335.373
341.065
346.438
351.383
355.783
359.513
362.466
364.561
365.727
365.914
365.083
363.202
360.253
356.231
351.144
345.018
337.895
329.829
320.893
311.175
300.769
289.786
278.332
266.511
254.423
242.156
229.8
217.444
205.182
193.119
181.343
169.923
158.921
148.383
138.357
128.893
120.029
111.788
104.179
97.198
90.843
85.114
79.994
75.453
71.441
67.88
64.712
61.898
59.398
57.182
55.207
53.413
51.758
50.214
48.758
47.38
46.067
44.796
43.569
42.399
41.317
40.371
39.59
38.982
38.558
38.32
38.276
38.444
38.826
39.409
40.181
41.128
42.239
43.505
44.908
46.415
47.992
49.598
51.202
52.783
54.321
55.8
57.203
58.514
59.726
60.839
61.85
62.755
63.55
64.229
64.791
65.24
65.578
65.81
65.939
65.966
65.893
65.724
65.461
65.104
64.653
64.109
63.471
62.743
61.927
61.027
60.044
58.984
57.85
56.65
55.389
54.069
52.692
51.263
49.789
48.272
46.706
45.088
43.414
41.684
39.916
38.114
36.266
34.386
32.505
30.649
28.848
27.106
25.387
23.683
22.036
20.409
18.654
16.742
14.721
12.573
10.462
8.093
4.542
0.011
-4.646
-8.024
-7.482
-3.175
2.252
6.162
4.81
-2.041
-10.845
-18.856
-23.112
-23.09
-21.437
-19.777
-19.217
-20.091
-21.316
-22.399
-23.372
-24.195
-25.031
-25.916
-26.704
-27.349
-27.875
-28.278
-28.549
-28.696
-28.724
-28.647
-28.493
-28.269
-27.967
-27.585
-27.128
-26.597
-25.998
-25.334
-24.607
-23.819
-22.978
-22.089
-21.159
-20.192
-19.196
-18.174
-17.134
-16.081
-15.02
-13.958
-12.899
-11.848
-10.811
-9.792
-8.795
-7.823
-6.881
-5.971
-5.095
-4.255
-3.453
-2.688
-1.963
-1.276
-0.626
-0.013
0.567
1.114
1.634
2.129
2.605
3.067
3.52
3.969
4.423
4.886
5.366
5.869
6.403
6.974
7.589
8.255
8.978
9.764
10.619
11.548
12.554
13.644
14.818
16.08
17.431
18.872
20.403
22.023
23.73
25.523
27.398
29.349
31.373
33.462
35.608
37.801
40.031
42.285
44.552
46.82
49.075
51.304
53.494
55.635
57.715
59.723
61.644
63.465
65.173
66.756
68.205
69.508
70.655
71.637
72.45
73.092
73.56
73.852
73.959
73.87
73.579
73.086
72.393
71.506
70.434
69.189
67.794
66.281
64.681
63.02
61.319
59.596
57.873
56.183
54.564
53.052
51.674
50.446
49.389
48.506
47.793
47.229
46.772
46.376
45.998
45.595
45.118
44.517
43.731
42.708
41.38
39.658
37.517
35.001
32.225
29.418
26.823
24.627
23.07
22.449
22.903
24.363
26.542
28.873
30.813
32.079
32.43
31.559
29.461
26.59
23.834
22.625
24.479
30.455
41.52
58.776
82.836
113.65
150.499
191.687
235.087
278.786
320.56
357.704
387.816
408.815
419.167
418.384
406.428
383.463
350.449
309.114
261.522
210.173
157.545
105.778
57.233
14.155
-21.743
-49.184
-67.574
-76.988
-77.745
-70.62
-57.17
-39.195
-18.677
2.28
22.049
39.232
52.56
61.435
65.912
66.397
63.8
59.278
53.821
48.545
44.476
42.128
41.728
43.227
46.203
50.15
54.558
58.785
62.349
65.051
66.795
67.657
67.849
67.569
67.069
66.642
66.452
66.567
67.01
67.738
68.708
69.901
71.265
72.747
74.319
75.962
77.668
79.439
81.253
83.082
84.897
86.674
88.407
90.098
91.753
93.38
94.991
96.599
98.226
99.89
101.603
103.38
105.233
107.174
109.222
111.399
113.725
116.227
118.918
121.809
124.905
128.208
131.714
135.417
139.3
143.339
147.515
151.814
156.221
160.73
165.325
169.984
174.687
179.413
184.15
188.894
193.645
198.403
203.182
208.007
212.91
217.937
223.116
228.45
233.94
239.569
245.323
251.191
257.146
263.146
269.139
275.058
280.827
286.367
291.571
296.307
300.443
303.839
306.381
307.996
308.618
308.198
306.702
304.099
300.386
295.59
289.742
282.891
275.102
266.451
257.05
247.046
236.579
225.794
214.811
203.722
192.614
181.567
170.643
159.899
149.373
139.087
129.06
119.316
109.86
100.69
91.781
83.083
74.559
66.176
57.913
49.763
41.723
33.79
25.972
18.285
10.749
3.384
-3.792
-10.772
-17.541
-24.082
-30.374
-36.386
-42.101
-47.507
-52.598
-57.373
-61.835
-65.991
-69.853
-73.44
-76.77
-79.862
-82.733
-85.395
-87.865
-90.16
-92.3
-94.301
-96.181
-97.955
-99.638
-101.244
-102.786
-104.277
-105.726
-107.143
-108.535
-109.911
-111.281
-112.651
-114.029
-115.42
-116.831
-118.266
-119.729
-121.223
-122.749
-124.308
-125.899
-127.522
-129.176
-130.858
-132.566
-134.298
-136.05
-137.82
-139.603
-141.398
-143.2
-145.005
-146.811
-148.615
-150.413
-152.202
-153.978
-155.739
-157.483
-159.206
-160.906
-162.581
-164.229
-165.848
-167.437
-168.994
-170.518
-172.008
-173.463
-174.882
-176.265
-177.612
-178.923
-180.198
-181.438
-182.642
-183.811
-184.945
-186.045
-187.109
-188.137
-189.13
-190.086
-191.006
-191.887
-192.73
-193.534
-194.297
-195.018
-195.697
-196.333
-196.923
-197.466
-197.961
-198.406
-198.799
-199.14
-199.426
-199.655
-199.827
-199.94
-199.991
-199.981
-199.906
-199.765
-199.559
-199.284
-198.941
-198.528
-198.047
-197.498
-196.881
-196.197
-195.447
-194.635
-193.761
-192.827
-191.837
-190.793
-189.698
-188.555
-187.367
-186.139
-184.873
-183.575
-182.247
-180.895
-179.521
-178.132
-176.729
-175.319
-173.904
-172.489
-171.08
-169.679
-168.292
-166.923
-165.576
-164.254
-162.962
-161.703
-160.478
-159.289
-158.138
-157.026
-155.953
-154.92
-153.926
-152.972
-152.055
-151.175
-150.331
-149.52
-148.741
-147.99
-147.266
-146.566
-145.886
-145.225
-144.578
-143.945
-143.322
-142.706
-142.097
-141.49
-140.884
-140.274
-139.66
-139.038
-138.406
-137.763
-137.108
-136.44
-135.762
-135.075
-134.383
-133.689
-132.996
-132.308
-131.628
-130.959
-130.304
-129.663
-129.042
-128.442
-127.867
-127.321
-126.806
-126.324
-125.879
-125.472
-125.103
-124.772
-124.48
-124.223
-124.006
-123.831
-123.702
-123.629
-123.617
-123.667
-123.779
-123.953
-124.183
-124.462
-124.773
-125.094
-125.406
-125.686
-125.911
-126.061
-126.107
-126.023
-125.785
-125.361
-124.731
-123.886
-122.817
-121.522
-120.001
-118.257
-116.323
-114.255
-112.122
-109.995
-107.943
-106.044
-104.418
-103.139
-102.209
-101.56
-101.015
-100.381
-99.54
-98.352
-96.608
-94.236
-91.359
-88.299
-85.666
-84.056
-83.769
-84.996
-87.935
-92.519
-98.251
-104.177
-108.761
-110.36
-107.841
-100.338
-86.924
-67.002
-40.553
-8.143
28.686
67.883
107.83
146.932
183.087
214.265
238.61
254.464
261.224
258.881
247.078
225.859
196.173
159.361
117.415
72.758
27.188
-17.444
-58.649
-94.23
-122.552
-142.601
-154.459
-158.732
-155.799
-146.713
-133.36
-117.836
-102.375
-88.583
-77.098
-68.404
-63.102
-61.186
-62.093
-64.792
-67.795
-70.187
-71.721
-72.124
-71.099
-68.577
-64.661
-59.85
-55.014
-50.659
-46.934
-43.947
-41.719
-40.26
-39.584
-39.508
-39.677
-39.837
-39.84
-39.607
-39.149
-38.452
-37.479
-36.232
-34.744
-33.055
-31.205
-29.213
-27.076
-24.798
-22.393
-19.883
-17.302
-14.683
-12.053
-9.432
-6.825
-4.238
-1.671
0.88
3.419
5.961
8.526
11.129
13.782
16.5
19.293
22.174
25.165
28.281
31.543
34.972
38.58
42.375
46.361
50.537
54.897
59.433
64.125
68.945
73.872
78.883
83.963
89.103
94.287
99.494
104.7
109.874
114.995
120.059
125.062
130.003
134.897
139.766
144.65
149.615
154.709
159.956
165.368
170.937
176.656
182.529
188.548
194.706
200.979
207.322
213.678
219.988
226.158
232.07
237.576
242.485
246.639
249.919
252.22
253.463
253.571
252.464
250.074
246.356
241.279
234.826
227.01
217.855
207.432
195.861
183.296
169.945
155.999
141.62
126.962
112.172
97.404
82.817
68.579
54.828
41.688
29.275
17.689
7.019
-2.703
-11.475
-19.332
-26.37
-32.634
-38.12
-42.875
-46.965
-50.389
-53.192
-55.539
-57.458
-59.058
-60.768
-62.215
-62.944
-63.692
-64.506
-66.915
-73.359
-81.999
-90.822
-96.725
-94.663
-86.69
-77.258
-70.257
-71.516
-79.981
-90.479
-99.765
-103.858
-102.638
-99.558
-96.271
-94.051
-93.254
-92.633
-91.763
-90.774
-89.627
-88.513
-87.513
-86.495
-85.448
-84.423
-83.408
-82.411
-81.483
-80.655
-79.972
-79.47
-79.097
-78.814
-78.652
-78.545
-78.339
-78.033
-77.649
-77.126
-76.715
-76.14
-74.359
-71.661
-68.932
-67.539
-70.805
-78.836
-88.147
-95.68
-96.119
-87.95
-76.615
-66.119
-61.338
-64.916
-71.982
-79.137
-83.97
-84.245
-82.522
-80.696
-79.057
-78.504
-78.354
-77.929
-77.505
-77.042
-76.559
-76.192
-75.863
-75.498
-75.116
-74.706
-74.236
-73.703
-73.125
-72.511
-71.874
-71.232
-70.58
-69.915
-69.247
-68.578
-67.909
-67.244
-66.581
-65.922
-65.27
-64.626
-63.992
-63.368
-62.755
-62.154
-61.564
-60.986
-60.419
-59.864
-59.319
-58.785
-58.261
-57.746
-57.241
-56.744
-56.255
-55.774
-55.299
-54.831
-54.369
-53.911
-53.458
-53.009
-52.563
-52.119
-51.676
-51.235
-50.795
-50.356
-49.918
-49.482
-49.046
-48.613
-48.182
-47.755
-47.332
-46.915
-46.505
-46.103
-45.711
-45.329
-44.96
-44.604
-44.263
-43.937
-43.629
-43.338
-43.066
-42.812
-42.579
-42.367
-42.174
-42.003
-41.853
-41.723
-41.614
-41.525
-41.455
-41.403
-41.369
-41.35
-41.345
-41.352
-41.368
-41.391
-41.418
-41.445
-41.47
-41.488
-41.495
-41.488
-41.462
-41.413
-41.337
-41.231
-41.089
-40.909
-40.686
-40.418
-40.101
-39.731
-39.306
-38.823
-38.28
-37.676
-37.008
-36.276
-35.479
-34.618
-33.693
-32.706
-31.657
-30.549
-29.384
-28.166
-26.9
-25.59
-24.242
-22.861
-21.457
-20.038
-18.613
-17.191
-15.781
-14.393
-13.037
-11.722
-10.456
-9.246
-8.1
-7.027
-6.036
-5.137
-4.338
-3.647
-3.069
-2.612
-2.284
-2.088
-2.024
-2.093
-2.297
-2.64
-3.133
-3.78
-4.58
-5.529
-6.622
-7.847
-9.194
-10.64
-12.155
-13.707
-15.268
-16.813
-18.33
-19.797
-21.181
-22.449
-23.561
-24.491
-25.23
-25.768
-26.092
-26.211
-26.148
-25.948
-25.68
-25.393
-25.129
-24.934
-24.851
-24.94
-25.272
-25.894
-26.864
-28.246
-30.028
-32.158
-34.535
-36.95
-39.2
-41.138
-42.525
-43.096
-42.77
-41.56
-39.637
-37.386
-35.016
-32.49
-29.906
-27.45
-25.045
-22.43
-18.974
-13.598
-5.617
5.165
19.225
37.287
59.81
87.073
118.109
150.596
182.995
214.744
246.379
279.055
311.91
341.249
361.09
365.537
351.833
321.69
281.202
237.009
193.3
151.502
110.291
68.851
28.565
-8.132
-38.454
-60.758
-74.922
-81.803
-82.621
-78.437
-70.147
-57.336
-38.984
-15.286
11.935
36.956
52.73
55.254
43.853
24.666
6.527
-4.862
-5.881
0.889
9.703
17.332
21.1
21.496
21.4
21.863
23.47
26.062
28.329
29.8
30.547
30.615
30.367
30.111
29.961
30.016
30.344
30.942
31.78
32.87
34.215
35.777
37.526
39.43
41.457
43.607
45.882
48.266
50.728
53.232
55.747
58.263
60.783
63.308
65.841
68.382
70.939
73.53
76.169
78.868
81.636
84.479
87.406
90.434
93.579
96.861
100.292
103.884
107.646
111.589
115.722
120.057
124.594
129.329
134.257
139.37
144.656
150.1
155.681
161.366
167.131
172.952
178.806
184.677
190.539
196.365
202.132
207.814
213.393
218.862
224.218
229.46
234.604
239.67
244.685
249.69
254.703
259.726
264.761
269.795
274.821
279.827
284.784
289.66
294.42
299.016
303.389
307.472
311.154
314.32
316.854
318.627
319.544
319.533
318.518
316.435
313.236
308.892
303.397
296.763
288.991
280.09
270.096
259.071
247.142
234.453
221.142
207.359
193.243
178.922
164.548
150.274
136.221
122.49
109.166
96.319
84.045
72.453
61.614
51.565
42.294
33.765
25.955
18.834
12.359
6.471
1.09
-3.88
-8.501
-12.809
-16.843
-20.635
-24.242
-27.74
-31.174
-34.566
-37.918
-41.222
-44.477
-47.689
-50.841
-53.898
-56.813
-59.529
-62.018
-64.272
-66.281
-68.037
-69.528
-70.729
-71.638
-72.266
-72.626
-72.731
-72.592
-72.217
-71.628
-70.86
-69.95
-68.937
-67.852
-66.712
-65.537
-64.346
-63.154
-61.976
-60.822
-59.694
-58.595
-57.534
-56.516
-55.548
-54.633
-53.769
-52.952
-52.181
-51.454
-50.768
-50.123
-49.517
-48.948
-48.417
-47.923
-47.468
-47.052
-46.672
-46.327
-46.015
-45.732
-45.475
-45.241
-45.027
-44.829
-44.645
-44.473
-44.309
-44.152
-44
-43.85
-43.701
-43.55
-43.397
-43.239
-43.075
-42.905
-42.728
-42.543
-42.352
-42.153
-41.948
-41.738
-41.522
-41.302
-41.078
-40.851
-40.622
-40.393
-40.164
-39.936
-39.712
-39.492
-39.278
-39.071
-38.873
-38.684
-38.506
-38.338
-38.183
-38.04
-37.91
-37.794
-37.692
-37.604
-37.531
-37.472
-37.428
-37.399
-37.383
-37.381
-37.392
-37.415
-37.448
-37.491
-37.543
-37.603
-37.668
-37.738
-37.811
-37.885
-37.958
-38.03
-38.098
-38.16
-38.216
-38.265
-38.304
-38.333
-38.351
-38.358
-38.352
-38.333
-38.3
-38.252
-38.19
-38.112
-38.019
-37.91
-37.785
-37.644
-37.488
-37.316
-37.128
-36.926
-36.709
-36.478
-36.234
-35.977
-35.708
-35.429
-35.14
-34.843
-34.539
-34.229
-33.916
-33.599
-33.279
-32.959
-32.639
-32.319
-32.001
-31.686
-31.374
-31.066
-30.763
-30.466
-30.176
-29.893
-29.619
-29.352
-29.096
-28.849
-28.614
-28.39
-28.179
-27.983
-27.801
-27.635
-27.486
-27.354
-27.241
-27.147
-27.072
-27.017
-26.982
-26.968
-26.974
-27.001
-27.049
-27.119
-27.209
-27.32
-27.452
-27.604
-27.775
-27.964
-28.17
-28.393
-28.632
-28.884
-29.149
-29.425
-29.711
-30.003
-30.299
-30.596
-30.891
-31.181
-31.461
-31.729
-31.98
-32.211
-32.418
-32.598
-32.747
-32.862
-32.94
-32.976
-32.968
-32.912
-32.808
-32.652
-32.443
-32.179
-31.859
-31.485
-31.056
-30.573
-30.037
-29.449
-28.813
-28.129
-27.403
-26.637
-25.837
-25.009
-24.16
-23.299
-22.436
-21.579
-20.739
-19.924
-19.146
-18.414
-17.735
-17.12
-16.575
-16.112
-15.741
-15.472
-15.312
-15.27
-15.353
-15.567
-15.921
-16.415
-17.052
-17.83
-18.755
-19.832
-21.071
-22.477
-24.048
-25.781
-27.67
-29.71
-31.892
-34.198
-36.599
-39.066
-41.573
-44.099
-46.627
-49.133
-51.578
-53.919
-56.113
-58.129
-59.956
-61.583
-62.993
-64.178
-65.139
-65.894
-66.496
-66.999
-67.442
-67.872
-68.335
-68.877
-69.591
-70.597
-71.951
-73.647
-75.588
-77.582
-79.496
-81.246
-82.678
-83.585
-83.823
-83.351
-82.412
-81.505
-80.978
-81.011
-81.689
-82.99
-84.85
-87.083
-88.999
-89.469
-87.421
-81.889
-72.199
-57.984
-38.794
-14.294
15.213
48.911
85.668
124.01
162.671
200.477
235.712
266.488
291.247
308.63
317.643
317.777
308.342
288.747
259.858
223.811
182.714
138.836
92.679
42.597
-10.902
-65.351
-115.381
-152.613
-171.456
-170.11
-151.317
-122.065
-89.967
-61.722
-41.115
-29.508
-25.665
-26.199
-28.822
-31.332
-32.966
-35.204
-38.375
-42.514
-47.143
-50.5
-51.769
-50.809
-48.296
-45.453
-42.391
-39.379
-35.576
-29.826
-23.811
-18.637
-16.021
-18.026
-22.361
-27.11
-30.743
-31.585
-32.005
-33.155
-34.377
-34.91
-31.278
-23.09
-13.533
-5.569
-3.538
-7.834
-14.329
-19.849
-21.065
-17.424
-11.981
-6.613
-2.6
-0.332
1.414
3.189
4.963
6.802
8.538
10.14
11.792
13.557
15.421
17.41
19.555
21.876
24.394
27.117
30.03
33.138
36.462
40.007
43.769
47.737
51.887
56.202
60.67
65.281
70.029
74.909
79.908
85.01
90.191
95.434
100.731
106.081
111.482
116.946
122.489
128.147
133.977
140.029
146.338
152.919
159.76
166.841
174.139
181.631
189.294
197.093
204.971
212.861
220.695
228.39
235.851
242.95
249.52
255.392
260.425
264.5
267.54
269.488
270.288
269.896
268.274
265.396
261.266
255.905
249.331
241.579
232.694
222.76
211.923
200.343
188.173
175.55
162.585
149.377
136.036
122.674
109.403
96.337
83.562
71.158
59.211
47.803
37.023
26.924
17.511
8.762
0.653
-6.842
-13.735
-20.038
-25.791
-31.043
-35.853
-40.292
-44.409
-48.248
-51.863
-55.312
-58.663
-61.972
-65.261
-68.535
-71.794
-75.04
-78.278
-81.511
-84.72
-87.876
-90.946
-93.886
-96.674
-99.292
-101.721
-103.944
-105.94
-107.693
-109.206
-110.49
-111.559
-112.426
-113.102
-113.598
-113.942
-114.161
-114.287
-114.354
-114.388
-114.405
-114.426
-114.466
-114.537
-114.651
-114.812
-115.016
-115.265
-115.559
-115.899
-116.285
-116.714
-117.18
-117.677
-118.198
-118.738
-119.293
-119.858
-120.427
-120.997
-121.565
-122.128
-122.685
-123.234
-123.77
-124.29
-124.789
-125.262
-125.706
-126.117
-126.491
-126.823
-127.111
-127.354
-127.548
-127.693
-127.787
-127.83
-127.821
-127.76
-127.648
-127.486
-127.274
-127.014
-126.709
-126.359
-125.968
-125.536
-125.067
-124.562
-124.024
-123.454
-122.855
-122.228
-121.576
-120.9
-120.204
-119.488
-118.756
-118.009
-117.248
-116.475
-115.693
-114.902
-114.104
-113.299
-112.489
-111.673
-110.852
-110.027
-109.196
-108.361
-107.519
-106.67
-105.814
-104.95
-104.076
-103.193
-102.298
-101.392
-100.473
-99.542
-98.597
-97.639
-96.667
-95.68
-94.68
-93.666
-92.638
-91.597
-90.543
-89.476
-88.397
-87.308
-86.208
-85.098
-83.981
-82.856
-81.726
-80.591
-79.453
-78.313
-77.175
-76.038
-74.907
-73.781
-72.665
-71.559
-70.467
-69.389
-68.328
-67.285
-66.261
-65.258
-64.277
-63.32
-62.385
-61.475
-60.589
-59.727
-58.89
-58.077
-57.289
-56.524
-55.782
-55.062
-54.364
-53.687
-53.029
-52.389
-51.767
-51.161
-50.569
-49.99
-49.422
-48.863
-48.311
-47.764
-47.22
-46.676
-46.131
-45.583
-45.029
-44.468
-43.898
-43.317
-42.726
-42.121
-41.504
-40.872
-40.226
-39.565
-38.889
-38.198
-37.491
-36.77
-36.034
-35.284
-34.521
-33.744
-32.955
-32.154
-31.343
-30.521
-29.691
-28.854
-28.011
-27.163
-26.313
-25.462
-24.613
-23.768
-22.929
-22.098
-21.279
-20.472
-19.68
-18.903
-18.143
-17.401
-16.683
-15.986
-15.309
-14.658
-14.04
-13.459
-12.922
-12.424
-11.957
-11.529
-11.149
-10.799
-10.464
-10.133
-9.789
-9.446
-9.135
-8.839
-8.528
-8.281
-8.19
-8.199
-8.311
-8.542
-8.687
-9.29
-10.88
-12.694
-14.5
-14.9
-12.221
-8.307
-4.387
-2.291
-4.534
-8.883
-13.446
-16.923
-17.171
-15.713
-14.095
-12.656
-12.336
-12.581
-12.68
-12.763
-12.734
-12.635
-12.604
-12.542
-12.37
-12.109
-11.761
-11.313
-10.766
-10.124
-9.388
-8.572
-7.692
-6.742
-5.717
-4.623
-3.459
-2.23
-0.941
0.406
1.807
3.256
4.744
6.265
7.808
9.364
10.924
12.477
14.013
15.52
16.988
18.406
19.765
21.056
22.27
23.397
24.426
25.349
26.155
26.836
27.385
27.794
28.056
28.169
28.132
27.944
27.606
27.113
26.456
25.634
24.645
23.493
22.182
20.725
19.137
17.445
15.686
13.896
12.107
10.344
8.628
6.983
5.436
4.021
2.772
1.715
0.867
0.245
-0.136
-0.284
-0.231
-0.031
0.232
0.491
0.704
0.82
0.796
0.579
0.102
-0.687
-1.817
-3.322
-5.246
-7.577
-10.253
-13.104
-15.814
-18.076
-19.61
-20.116
-19.378
-17.341
-14.054
-9.834
-5.217
-0.607
3.641
7.19
10.046
12.516
15.161
19.075
25.489
35.373
49.799
69.674
95.295
126.585
162.776
202.188
243.092
283.716
321.687
354.713
380.771
397.869
405.025
402.165
388.986
365.572
333.026
292.656
246.906
199.407
151.991
105.776
61.611
18.749
-20.475
-51.655
-71.279
-75.482
-65.469
-46.515
-23.183
-0.025
22.294
44.881
66.512
84.58
94.166
92.311
80.028
61.529
44.029
32.405
28.801
32.357
38.801
45.122
49.197
50.537
50.993
51.49
52.56
54.199
55.344
55.586
55.012
53.785
52.402
51.233
50.33
49.739
49.479
49.5
49.796
50.369
51.181
52.19
53.375
54.72
56.208
57.842
59.609
61.478
63.42
65.397
67.388
69.388
71.397
73.418
75.454
77.504
79.578
81.69
83.851
86.071
88.356
90.711
93.15
95.687
98.34
101.127
104.059
107.144
110.393
113.815
117.422
121.223
125.224
129.42
133.807
138.381
143.131
148.045
153.102
158.272
163.532
168.861
174.241
179.658
185.091
190.509
195.887
201.199
206.426
211.561
216.597
221.53
226.371
231.143
235.875
240.61
245.366
250.142
254.93
259.719
264.496
269.26
273.997
278.68
283.282
287.767
292.087
296.185
299.975
303.336
306.153
308.299
309.674
310.218
309.868
308.566
306.265
302.912
298.467
292.915
286.238
278.413
269.457
259.404
248.337
236.391
223.694
210.387
196.606
182.461
168.07
153.569
139.083
124.74
110.684
97.032
83.91
71.463
59.789
48.96
39.014
29.936
21.711
14.321
7.727
1.894
-3.221
-7.685
-11.567
-14.938
-17.902
-20.549
-22.968
-25.272
-27.536
-29.816
-32.158
-34.575
-37.074
-39.663
-42.335
-45.076
-47.874
-50.701
-53.528
-56.323
-59.03
-61.604
-64.01
-66.203
-68.163
-69.876
-71.327
-72.519
-73.467
-74.179
-74.676
-74.98
-75.103
-75.073
-74.927
-74.698
-74.43
-74.158
-73.885
-73.623
-73.391
-73.174
-72.941
-72.68
-72.361
-71.969
-71.564
-71.184
-70.826
-70.589
-70.669
-71.065
-71.697
-72.613
-73.561
-74.783
-77.315
-80.831
-84.317
-86.172
-82.773
-73.547
-61.542
-50.652
-47.644
-55.746
-71.759
-90.621
-104.681
-108.771
-103.434
-92.147
-79.978
-70.597
-66.176
-66.205
-69.227
-74.953
-80.847
-85.605
-88.929
-89.404
-88.365
-87.105
-85.827
-85.423
-85.541
-85.601
-85.739
-85.886
-86.072
-86.412
-86.806
-87.158
-87.469
-87.744
-87.981
-88.183
-88.358
-88.506
-88.643
-88.784
-88.926
-89.063
-89.197
-89.325
-89.447
-89.564
-89.674
-89.775
-89.868
-89.952
-90.027
-90.094
-90.15
-90.197
-90.233
-90.258
-90.272
-90.275
-90.266
-90.245
-90.212
-90.167
-90.109
-90.04
-89.957
-89.863
-89.755
-89.635
-89.503
-89.358
-89.201
-89.032
-88.852
-88.661
-88.459
-88.248
-88.029
-87.802
-87.569
-87.331
-87.087
-86.841
-86.592
-86.342
-86.091
-85.84
-85.59
-85.342
-85.096
-84.852
-84.612
-84.375
-84.142
-83.913
-83.689
-83.469
-83.254
-83.044
-82.839
-82.639
-82.444
-82.255
-82.071
-81.893
-81.72
-81.552
-81.389
-81.232
-81.078
-80.929
-80.783
-80.64
-80.5
-80.362
-80.225
-80.09
-79.956
-79.823
-79.691
-79.561
-79.432
-79.305
-79.181
-79.06
-78.943
-78.831
-78.725
-78.625
-78.534
-78.451
-78.379
-78.317
-78.266
-78.228
-78.202
-78.191
-78.193
-78.209
-78.24
-78.285
-78.346
-78.42
-78.51
-78.613
-78.731
-78.861
-79.004
-79.159
-79.323
-79.496
-79.676
-79.86
-80.045
-80.23
-80.41
-80.581
-80.74
-80.883
-81.004
-81.101
-81.167
-81.199
-81.191
-81.139
-81.038
-80.885
-80.674
-80.403
-80.068
-79.664
-79.191
-78.645
-78.024
-77.326
-76.551
-75.697
-74.764
-73.753
-72.666
-71.501
-70.264
-68.956
-67.583
-66.146
-64.649
-63.097
-61.498
-59.863
-58.2
-56.515
-54.82
-53.134
-51.476
-49.866
-48.315
-46.819
-45.382
-44.03
-42.764
-41.561
-40.407
-39.28
-38.184
-37.166
-36.251
-35.401
-34.657
-34.181
-34.021
-34.125
-34.522
-35.06
-36.011
-38.39
-42.074
-46.088
-48.978
-47.87
-42.647
-36.224
-31.412
-32.231
-39.291
-48.672
-57.309
-62
-61.86
-59.751
-57.522
-56.323
-56.622
-57.243
-57.591
-57.741
-57.679
-57.614
-57.647
-57.654
-57.625
-57.64
-57.75
-57.991
-58.43
-59.154
-60.202
-61.574
-63.173
-64.769
-66.169
-67.233
-67.762
-67.521
-66.383
-64.376
-61.778
-59.122
-56.778
-54.872
-53.642
-53.32
-53.886
-55.139
-55.721
-53.841
-48.969
-40.476
-29.056
-15.5
2.611
26.446
57.24
96.056
138.721
181.793
222.285
255.781
281.801
300.2
309.927
311.582
304.709
288.427
263.246
230.247
190.938
147.384
101.611
55.158
9.852
-32.033
-68.559
-98.121
-119.628
-132.758
-137.476
-133.962
-123.217
-106.9
-86.908
-65.438
-44.349
-25.157
-9.394
1.936
8.482
10.429
8.528
3.79
-2.331
-8.319
-13.444
-17
-19.726
-22.83
-24.997
-25.675
-23.694
-17.466
-9.622
-2.188
3.52
5.579
5.438
4.617
3.565
3.325
3.698
4.219
5.065
6.177
7.533
9.205
11.086
13.062
15.108
17.206
19.335
21.489
23.674
25.876
28.079
30.283
32.469
34.628
36.768
38.893
41.011
43.137
45.285
47.47
49.702
51.993
54.354
56.8
59.345
62.004
64.796
67.743
70.87
74.193
77.721
81.459
85.404
89.551
93.891
98.406
103.07
107.858
112.75
117.731
122.796
127.929
133.111
138.316
143.511
148.674
153.803
158.893
163.943
168.968
173.987
179.048
184.22
189.553
195.074
200.788
206.677
212.733
218.951
225.319
231.827
238.442
245.109
251.777
258.387
264.845
271.037
276.799
281.935
286.281
289.71
292.125
293.458
293.632
292.571
290.219
286.528
281.472
275.049
267.242
258.062
247.571
235.87
223.12
209.529
195.273
180.514
165.398
150.049
134.618
119.255
104.096
89.285
74.949
61.213
48.219
36.077
24.855
14.584
5.245
-3.217
-10.841
-17.675
-23.767
-29.158
-33.913
-38.105
-41.805
-45.106
-48.093
-50.85
-53.48
-56.062
-58.65
-61.282
-63.97
-66.703
-69.478
-72.282
-75.094
-77.903
-80.683
-83.404
-86.032
-88.519
-90.823
-92.91
-94.743
-96.297
-97.559
-98.521
-99.19
-99.585
-99.722
-99.621
-99.309
-98.805
-98.134
-97.324
-96.405
-95.414
-94.382
-93.331
-92.285
-91.261
-90.271
-89.329
-88.439
-87.601
-86.816
-86.084
-85.405
-84.781
-84.212
-83.694
-83.225
-82.8
-82.416
-82.07
-81.759
-81.482
-81.234
-81.016
-80.824
-80.658
-80.518
-80.399
-80.299
-80.214
-80.14
-80.073
-80.01
-79.946
-79.879
-79.806
-79.725
-79.634
-79.532
-79.418
-79.289
-79.146
-78.987
-78.812
-78.621
-78.414
-78.19
-77.952
-77.699
-77.432
-77.153
-76.862
-76.561
-76.25
-75.932
-75.606
-75.276
-74.942
-74.606
-74.27
-73.935
-73.604
-73.278
-72.959
-72.646
-72.342
-72.047
-71.76
-71.483
-71.214
-70.954
-70.701
-70.455
-70.215
-69.98
-69.75
-69.524
-69.3
-69.077
-68.855
-68.633
-68.409
-68.182
-67.952
-67.719
-67.481
-67.238
-66.989
-66.734
-66.473
-66.205
-65.93
-65.647
-65.358
-65.061
-64.758
-64.449
-64.136
-63.819
-63.5
-63.18
-62.862
-62.547
-62.237
-61.934
-61.638
-61.353
-61.079
-60.817
-60.569
-60.335
-60.117
-59.914
-59.727
-59.556
-59.4
-59.257
-59.128
-59.009
-58.899
-58.796
-58.697
-58.599
-58.499
-58.394
-58.28
-58.154
-58.011
-57.847
-57.657
-57.437
-57.182
-56.887
-56.547
-56.157
-55.713
-55.211
-54.646
-54.016
-53.317
-52.547
-51.702
-50.782
-49.785
-48.711
-47.561
-46.334
-45.034
-43.664
-42.227
-40.728
-39.174
-37.571
-35.928
-34.252
-32.553
-30.84
-29.123
-27.412
-25.718
-24.05
-22.419
-20.836
-19.312
-17.859
-16.489
-15.212
-14.038
-12.979
-12.045
-11.249
-10.598
-10.098
-9.754
-9.573
-9.561
-9.73
-10.085
-10.624
-11.343
-12.239
-13.303
-14.526
-15.89
-17.362
-18.912
-20.51
-22.134
-23.768
-25.391
-26.973
-28.484
-29.89
-31.17
-32.32
-33.335
-34.2
-34.918
-35.499
-35.98
-36.432
-36.916
-37.476
-38.151
-38.963
-39.94
-41.124
-42.548
-44.241
-46.216
-48.455
-50.938
-53.661
-56.605
-59.688
-62.749
-65.528
-67.729
-69.078
-69.348
-68.364
-65.948
-62.031
-56.715
-50.222
-42.99
-35.552
-28.289
-21.374
-14.854
-8.521
-1.999
5.189
14.003
25.682
41.389
61.449
85.058
111.218
138.901
168.748
202.773
240.61
279.798
314.292
334.921
336.505
317.968
282.797
239.607
194.552
150.637
108.779
66.789
24.348
-16.326
-52.633
-81.682
-102.018
-113.895
-117.994
-114.922
-105.599
-91.496
-74.454
-56.478
-39.244
-23.88
-11.194
-1.946
3.493
5.331
4.236
1.217
-2.739
-6.789
-10.282
-12.661
-13.545
-12.855
-10.797
-7.795
-4.363
-1.013
1.922
4.236
5.802
6.633
6.823
6.546
6.058
5.628
5.407
5.468
5.833
6.476
7.382
8.537
9.888
11.381
12.976
14.655
16.414
18.256
20.166
22.117
24.081
26.036
27.976
29.902
31.82
33.734
35.649
37.578
39.542
41.559
43.642
45.804
48.056
50.412
52.889
55.508
58.284
61.229
64.354
67.67
71.189
74.925
78.882
83.062
87.458
92.067
96.881
101.888
107.067
112.385
117.81
123.318
128.893
134.528
140.211
145.928
151.665
157.408
163.153
168.9
174.643
180.365
186.055
191.706
197.332
202.962
208.62
214.302
219.987
225.642
231.229
236.707
242.022
247.101
251.855
256.202
260.078
263.438
266.245
268.45
269.992
270.795
270.796
269.958
268.26
265.691
262.245
257.93
252.775
246.85
240.251
233.056
225.331
217.121
208.46
199.389
189.954
180.198
170.172
159.922
149.495
138.957
128.378
117.822
107.354
96.996
86.748
76.628
66.652
56.85
47.275
37.975
29.01
20.454
12.366
4.786
-2.253
-8.757
-14.745
-20.246
-25.313
-29.976
-34.243
-38.134
-41.655
-44.818
-47.653
-50.196
-52.487
-54.594
-56.57
-58.454
-60.284
-62.069
-63.804
-65.475
-67.043
-68.476
-69.761
-70.89
-71.866
-72.7
-73.393
-73.948
-74.371
-74.652
-74.788
-74.779
-74.622
-74.325
-73.905
-73.385
-72.799
-72.183
-71.558
-70.945
-70.355
-69.795
-69.273
-68.792
-68.349
-67.947
-67.586
-67.27
-67.002
-66.786
-66.621
-66.503
-66.428
-66.39
-66.385
-66.408
-66.457
-66.528
-66.621
-66.733
-66.868
-67.024
-67.203
-67.404
-67.624
-67.861
-68.114
-68.38
-68.658
-68.944
-69.237
-69.536
-69.84
-70.15
-70.464
-70.783
-71.107
-71.436
-71.77
-72.11
-72.455
-72.805
-73.16
-73.52
-73.885
-74.255
-74.631
-75.012
-75.397
-75.788
-76.183
-76.582
-76.983
-77.386
-77.788
-78.189
-78.587
-78.982
-79.373
-79.758
-80.137
-80.51
-80.874
-81.231
-81.577
-81.91
-82.231
-82.535
-82.822
-83.09
-83.336
-83.56
-83.761
-83.936
-84.087
-84.211
-84.309
-84.381
-84.425
-84.442
-84.432
-84.395
-84.332
-84.244
-84.133
-84
-83.847
-83.676
-83.49
-83.289
-83.075
-82.849
-82.614
-82.367
-82.11
-81.842
-81.564
-81.279
-80.988
-80.693
-80.396
-80.101
-79.812
-79.532
-79.263
-79.003
-78.752
-78.506
-78.265
-78.026
-77.785
-77.541
-77.288
-77.022
-76.745
-76.453
-76.142
-75.805
-75.431
-75.01
-74.544
-74.033
-73.477
-72.885
-72.263
-71.628
-71.003
-70.403
-69.841
-69.324
-68.846
-68.409
-67.998
-67.597
-67.199
-66.791
-66.359
-65.907
-65.408
-64.814
-64.149
-63.404
-62.553
-61.618
-60.519
-59.161
-57.594
-55.864
-53.891
-51.671
-49.134
-46.164
-42.984
-39.831
-36.725
-33.761
-31.118
-28.911
-27.451
-27.053
-27.532
-28.691
-30.493
-32.811
-35.552
-38.658
-41.84
-44.815
-47.679
-50.529
-53.379
-56.278
-59.148
-61.871
-64.457
-66.923
-69.148
-71.024
-72.476
-73.413
-73.855
-73.865
-73.48
-72.74
-71.692
-70.369
-68.823
-67.145
-65.413
-63.713
-62.137
-60.75
-59.648
-58.953
-58.721
-58.94
-59.515
-60.239
-60.915
-61.414
-61.575
-61.185
-60.149
-58.523
-56.556
-54.726
-53.462
-52.949
-53.337
-54.827
-57.356
-60.493
-63.419
-64.828
-63.411
-58.274
-48.534
-33.229
-11.813
15.715
48.649
85.421
124.224
163.436
201.059
234.725
262.215
281.596
291.728
292.316
283.312
264.864
237.811
203.756
164.843
123.467
81.577
40.891
3.267
-29.47
-55.778
-74.944
-87.219
-93.239
-93.574
-89.005
-80.596
-69.872
-58.778
-48.579
-39.705
-32.418
-26.876
-23.155
-21.372
-21.001
-20.876
-20.351
-19.273
-17.575
-15.412
-12.79
-9.457
-5.62
-1.913
1.305
3.847
5.666
6.959
7.779
8.009
7.729
7.176
6.546
6.048
5.78
5.706
5.837
6.214
6.854
7.76
8.91
10.25
11.748
13.395
15.18
17.1
19.134
21.252
23.421
25.611
27.805
29.999
32.191
34.383
36.577
38.774
40.991
43.247
45.559
47.944
50.41
52.968
55.631
58.418
61.347
64.432
67.683
71.111
74.724
78.535
82.554
86.784
91.223
95.862
100.693
105.703
110.876
116.191
121.615
127.124
132.692
138.298
143.924
149.545
155.139
160.682
166.151
171.527
176.805
181.981
187.063
192.067
197.005
201.898
206.781
211.671
216.588
221.536
226.489
231.453
236.448
241.471
246.523
251.574
256.531
261.327
265.931
270.187
273.835
276.737
278.809
279.939
280.231
279.281
276.087
270.85
264.383
258.149
254.864
254.231
253.569
250.181
240.261
223.853
204.704
185.734
170.158
158.501
148.158
137.634
125.892
112.765
99.5
86.683
74.379
62.733
51.676
41.248
31.645
22.909
15.002
7.912
1.612
-3.933
-8.764
-12.954
-16.59
-19.747
-22.499
-24.922
-27.08
-29.052
-30.918
-32.739
-34.558
-36.395
-38.257
-40.154
-42.088
-44.059
-46.061
-48.074
-50.073
-52.03
-53.902
-55.656
-57.268
-58.712
-59.962
-61.004
-61.83
-62.44
-62.852
-63.078
-63.129
-63.022
-62.772
-62.402
-61.935
-61.398
-60.822
-60.23
-59.644
-59.079
-58.551
-58.069
-57.642
-57.273
-56.96
-56.7
-56.493
-56.337
-56.231
-56.172
-56.156
-56.177
-56.231
-56.311
-56.414
-56.537
-56.676
-56.829
-56.993
-57.168
-57.352
-57.545
-57.746
-57.952
-58.161
-58.37
-58.579
-58.786
-58.988
-59.184
-59.373
-59.555
-59.73
-59.897
-60.057
-60.209
-60.355
-60.493
-60.625
-60.751
-60.872
-60.989
-61.102
-61.213
-61.322
-61.43
-61.538
-61.646
-61.755
-61.866
-61.978
-62.092
-62.208
-62.327
-62.448
-62.572
-62.698
-62.826
-62.956
-63.087
-63.219
-63.351
-63.481
-63.608
-63.732
-63.851
-63.963
-64.068
-64.164
-64.251
-64.327
-64.391
-64.443
-64.482
-64.507
-64.516
-64.51
-64.488
-64.451
-64.397
-64.327
-64.242
-64.142
-64.028
-63.902
-63.763
-63.613
-63.452
-63.281
-63.102
-62.916
-62.722
-62.525
-62.324
-62.122
-61.921
-61.722
-61.529
-61.341
-61.161
-60.989
-60.828
-60.678
-60.54
-60.416
-60.306
-60.212
-60.135
-60.076
-60.034
-60.006
-59.994
-59.994
-60.008
-60.03
-60.053
-60.08
-60.112
-60.15
-60.195
-60.241
-60.277
-60.311
-60.346
-60.365
-60.352
-60.291
-60.162
-59.973
-59.744
-59.454
-59.072
-58.66
-58.296
-57.929
-57.563
-57.211
-56.697
-56.481
-57.008
-57.626
-58.141
-57.362
-53.873
-49.259
-44.582
-41.428
-41.971
-44.328
-46.9
-48.59
-47.567
-45.132
-42.597
-40.246
-38.888
-38.055
-37.142
-36.271
-35.362
-34.443
-33.613
-32.753
-31.747
-30.592
-29.278
-27.796
-26.177
-24.456
-22.68
-20.923
-19.245
-17.679
-16.259
-15.005
-13.936
-13.092
-12.515
-12.267
-12.426
-13.044
-14.159
-15.794
-17.929
-20.531
-23.544
-26.874
-30.44
-34.17
-37.989
-41.846
-45.696
-49.475
-53.125
-56.572
-59.724
-62.511
-64.865
-66.726
-68.083
-68.938
-69.317
-69.284
-68.887
-68.178
-67.234
-66.118
-64.895
-63.634
-62.381
-61.202
-60.206
-59.448
-58.936
-58.613
-58.296
-57.808
-57.027
-55.787
-53.896
-51.256
-47.916
-44.134
-40.426
-37.288
-34.996
-33.741
-33.741
-35.003
-37.164
-39.47
-40.698
-39.519
-35.018
-26.44
-12.899
6.176
30.846
60.651
94.325
130.208
166.869
202.693
235.569
263.427
284.376
296.941
300.317
294.005
277.777
251.977
218.248
179.415
137.663
94.612
51.223
7.323
-34.541
-69.842
-94.908
-105.786
-102.754
-90.388
-72.987
-55.697
-41.343
-29.27
-19.221
-10.715
-3.859
-0.185
-0.041
-2.68
-7.02
-11.513
-15.278
-18.182
-19.972
-20.311
-19.137
-16.615
-13.247
-9.821
-6.776
-4.208
-2.202
-0.818
-0.079
0.03
-0.309
-0.749
-1.053
-1.121
-0.91
-0.437
0.293
1.307
2.596
4.112
5.806
7.643
9.605
11.698
13.923
16.259
18.677
21.141
23.616
26.083
28.531
30.957
33.356
35.727
38.072
40.398
42.724
45.063
47.425
49.818
52.251
54.737
57.293
59.939
62.69
65.56
68.563
71.716
75.036
78.537
82.222
86.09
90.137
94.356
98.739
103.27
107.922
112.674
117.506
122.406
127.368
132.376
137.41
142.442
147.444
152.402
157.311
162.167
166.969
171.726
176.458
181.208
186.028
190.954
195.999
201.153
206.397
211.721
217.119
222.579
228.082
233.586
239.043
244.406
249.62
254.603
259.249
263.407
266.921
269.666
271.55
272.51
272.493
271.435
269.276
265.972
261.501
255.864
249.063
241.092
231.973
221.767
210.578
198.568
185.903
172.731
159.179
145.356
131.385
117.402
103.546
89.946
76.711
63.938
51.734
40.218
29.486
19.591
10.549
2.326
-5.115
-11.802
-17.767
-23.041
-27.676
-31.742
-35.317
-38.481
-41.302
-43.845
-46.184
-48.406
-50.582
-52.761
-54.968
-57.202
-59.463
-61.755
-64.074
-66.413
-68.749
-71.053
-73.285
-75.406
-77.384
-79.195
-80.811
-82.205
-83.357
-84.26
-84.913
-85.335
-85.537
-85.533
-85.339
-84.972
-84.458
-83.825
-83.103
-82.325
-81.517
-80.701
-79.897
-79.12
-78.383
-77.696
-77.063
-76.482
-75.954
-75.478
-75.056
-74.687
-74.368
-74.097
-73.868
-73.678
-73.521
-73.396
-73.3
-73.231
-73.186
-73.165
-73.166
-73.19
-73.236
-73.302
-73.386
-73.483
-73.591
-73.709
-73.833
-73.962
-74.093
-74.221
-74.347
-74.467
-74.585
-74.697
-74.804
-74.906
-75.002
-75.096
-75.189
-75.279
-75.367
-75.463
-75.573
-75.703
-75.858
-76.024
-76.203
-76.415
-76.642
-76.843
-76.986
-77.033
-76.987
-76.898
-76.772
-76.569
-76.336
-76.232
-76.343
-76.648
-77.1
-77.505
-78.107
-79.867
-82.704
-85.69
-87.29
-84.557
-77.531
-69.291
-62.82
-62.471
-68.924
-78.034
-86.632
-91.461
-91.304
-89.423
-88.683
-89.802
-92.411
-93.814
-90.105
-81.548
-71.533
-63.553
-62.6
-69.186
-78.59
-87.199
-91.238
-89.8
-86.248
-82.725
-80.527
-80.063
-80.049
-79.873
-79.622
-79.309
-79.113
-79.065
-79.003
-78.878
-78.716
-78.514
-78.255
-77.934
-77.571
-77.195
-76.84
-76.524
-76.232
-75.955
-75.696
-75.456
-75.235
-75.035
-74.849
-74.676
-74.517
-74.37
-74.236
-74.111
-73.994
-73.881
-73.769
-73.653
-73.532
-73.403
-73.263
-73.11
-72.94
-72.749
-72.531
-72.285
-72.005
-71.687
-71.328
-70.922
-70.465
-69.956
-69.39
-68.767
-68.082
-67.336
-66.526
-65.652
-64.715
-63.716
-62.654
-61.532
-60.353
-59.119
-57.834
-56.503
-55.132
-53.725
-52.291
-50.836
-49.37
-47.901
-46.437
-44.988
-43.563
-42.172
-40.823
-39.525
-38.287
-37.118
-36.028
-35.027
-34.123
-33.326
-32.645
-32.087
-31.662
-31.375
-31.228
-31.222
-31.361
-31.648
-32.092
-32.694
-33.454
-34.367
-35.43
-36.635
-37.969
-39.413
-40.931
-42.494
-44.071
-45.641
-47.188
-48.691
-50.12
-51.444
-52.628
-53.65
-54.506
-55.183
-55.663
-55.941
-56.033
-55.999
-55.921
-55.866
-55.875
-55.961
-56.151
-56.511
-57.081
-57.88
-58.922
-60.177
-61.655
-63.439
-65.529
-67.794
-70.11
-72.321
-74.143
-75.291
-75.517
-74.424
-72.303
-70.207
-68.143
-65.69
-61.674
-53.602
-42.222
-30.528
-21.236
-17.977
-19.843
-21.935
-20.167
-9.864
10.467
38.56
72.255
108.46
145.47
183.545
222.379
261.928
299.404
329.384
347.389
348.947
333.563
305.245
268.008
226.775
184.569
141.412
97.892
54.659
13.29
-23.338
-53.448
-76.182
-91.397
-99.855
-101.932
-97.829
-88.537
-75.276
-59.389
-42.474
-25.658
-9.764
4.017
14.653
21.761
25.249
25.45
23.138
18.931
13.503
7.914
3.061
-0.52
-2.49
-2.867
-1.965
-0.033
2.567
5.257
7.626
9.44
10.565
11.08
11.17
10.968
10.659
10.486
10.584
11.027
11.85
13.005
14.435
16.102
17.95
19.922
21.965
24.04
26.127
28.218
30.303
32.404
34.541
36.731
39.079
41.687
44.493
47.468
50.636
53.77
57.145
61.097
64.995
68.688
71.141
70.579
67.69
63.265
59.561
61.43
70.654
87.284
109.156
128.706
139.885
139.995
128.773
113.306
102.068
99.692
109.027
126.317
144.459
159.499
168.449
171.977
173.789
175.678
178.805
183.408
188.304
193.127
198.005
202.953
208.202
213.808
219.59
225.455
231.38
237.331
243.285
249.234
255.141
260.964
266.677
272.237
277.557
282.527
286.993
290.782
293.758
295.819
296.887
296.907
295.815
293.556
290.099
285.447
279.623
272.654
264.552
255.329
245.036
233.78
221.73
209.068
195.947
182.501
168.854
155.133
141.489
128.053
114.913
102.132
89.761
77.866
66.54
55.881
45.945
36.74
28.227
20.358
13.105
6.436
0.307
-5.35
-10.629
-15.596
-20.281
-24.694
-28.85
-32.778
-36.537
-40.187
-43.761
-47.268
-50.701
-54.054
-57.333
-60.531
-63.623
-66.562
-69.29
-71.772
-73.998
-75.971
-77.693
-79.16
-80.358
-81.277
-81.924
-82.311
-82.45
-82.35
-82.02
-81.474
-80.743
-79.865
-78.885
-77.835
-76.736
-75.606
-74.462
-73.32
-72.197
-71.101
-70.037
-69.008
-68.023
-67.09
-66.215
-65.405
-64.658
-63.972
-63.344
-62.772
-62.253
-61.788
-61.373
-61.006
-60.688
-60.419
-60.2
-60.031
-59.911
-59.837
-59.807
-59.818
-59.867
-59.95
-60.062
-60.201
-60.363
-60.544
-60.743
-60.957
-61.182
-61.417
-61.658
-61.905
-62.155
-62.406
-62.656
-62.903
-63.148
-63.388
-63.624
-63.855
-64.08
-64.3
-64.513
-64.72
-64.92
-65.112
-65.296
-65.472
-65.639
-65.796
-65.944
-66.083
-66.212
-66.332
-66.443
-66.544
-66.636
-66.718
-66.791
-66.853
-66.906
-66.947
-66.979
-66.999
-67.008
-67.005
-66.992
-66.967
-66.931
-66.883
-66.823
-66.751
-66.667
-66.572
-66.465
-66.347
-66.219
-66.081
-65.935
-65.78
-65.619
-65.451
-65.278
-65.102
-64.923
-64.743
-64.562
-64.383
-64.208
-64.037
-63.872
-63.716
-63.568
-63.432
-63.307
-63.197
-63.1
-63.019
-62.955
-62.907
-62.878
-62.867
-62.874
-62.901
-62.946
-63.009
-63.09
-63.188
-63.301
-63.429
-63.569
-63.719
-63.879
-64.045
-64.216
-64.388
-64.559
-64.725
-64.884
-65.032
-65.164
-65.278
-65.367
-65.43
-65.461
-65.456
-65.412
-65.326
-65.192
-65.008
-64.77
-64.476
-64.122
-63.706
-63.224
-62.677
-62.061
-61.377
-60.624
-59.802
-58.911
-57.953
-56.93
-55.843
-54.696
-53.49
-52.231
-50.922
-49.57
-48.178
-46.755
-45.307
-43.844
-42.376
-40.912
-39.463
-38.039
-36.65
-35.308
-34.022
-32.801
-31.652
-30.582
-29.601
-28.72
-27.949
-27.295
-26.763
-26.365
-26.113
-26.015
-26.081
-26.304
-26.675
-27.202
-27.898
-28.753
-29.76
-30.906
-32.173
-33.568
-35.104
-36.754
-38.467
-40.278
-42.236
-44.262
-46.337
-48.462
-50.437
-52.709
-55.707
-58.73
-61.545
-62.923
-61.388
-58.54
-55.462
-53.779
-55.736
-59.456
-63.334
-66.274
-66.449
-65.232
-64.032
-63.222
-63.672
-64.959
-66.547
-68.543
-70.814
-73.297
-75.857
-78.152
-79.923
-80.893
-80.779
-79.544
-77.265
-74.224
-71.027
-68.103
-65.657
-63.997
-63.299
-63.3
-63.487
-62.877
-59.931
-53.459
-42.651
-26.598
-4.658
23.212
56.631
94.445
134.566
175.076
214.293
250.184
280.82
304.632
320.221
326.877
324.962
314.766
296.387
270.507
237.943
200.254
160.068
119.39
78.92
37.935
-4.812
-48.641
-90.053
-122.72
-140.776
-142.72
-130.604
-110.107
-87.085
-63.17
-39.68
-17.982
0.549
11.65
13.653
8.916
0.237
-8.178
-13.99
-18.295
-21.801
-24.863
-27.316
-27.887
-26.199
-22.802
-18.475
-14.184
-10.468
-7.519
-5.466
-4.338
-4.079
-4.503
-5.275
-6.032
-6.559
-6.765
-6.632
-6.189
-5.444
-4.402
-3.11
-1.634
-0.018
1.716
3.567
5.552
7.662
9.871
12.148
14.458
16.781
19.114
21.455
23.806
26.168
28.545
30.948
33.396
35.903
38.477
41.129
43.866
46.703
49.658
52.747
55.988
59.394
62.979
66.754
70.734
74.925
79.327
83.936
88.744
93.74
98.913
104.242
109.7
115.266
120.916
126.632
132.401
138.198
144
149.785
155.526
161.205
166.818
172.357
177.823
183.228
188.585
193.919
199.268
204.645
210.052
215.484
220.918
226.347
231.755
237.113
242.388
247.54
252.51
257.248
261.687
265.731
269.282
272.225
274.436
275.827
276.328
275.882
274.442
271.955
268.385
263.73
257.996
251.2
243.37
234.524
224.711
214.032
202.597
190.539
178.004
165.102
151.949
138.665
125.371
112.204
99.278
86.672
74.46
62.716
51.514
40.951
31.085
21.927
13.477
5.711
-1.395
-7.85
-13.685
-18.952
-23.714
-28.053
-32.031
-35.68
-39.036
-42.137
-45.034
-47.797
-50.469
-53.063
-55.59
-58.053
-60.456
-62.815
-65.125
-67.356
-69.475
-71.437
-73.217
-74.808
-76.203
-77.396
-78.377
-79.129
-79.649
-79.954
-80.055
-79.964
-79.694
-79.249
-78.651
-77.93
-77.119
-76.255
-75.366
-74.467
-73.579
-72.715
-71.891
-71.119
-70.405
-69.748
-69.15
-68.614
-68.142
-67.738
-67.401
-67.126
-66.908
-66.742
-66.622
-66.544
-66.504
-66.498
-66.521
-66.572
-66.648
-66.749
-66.874
-67.018
-67.181
-67.358
-67.547
-67.745
-67.948
-68.153
-68.357
-68.559
-68.755
-68.946
-69.129
-69.303
-69.468
-69.622
-69.765
-69.898
-70.018
-70.128
-70.227
-70.315
-70.394
-70.465
-70.529
-70.586
-70.638
-70.686
-70.732
-70.775
-70.817
-70.858
-70.898
-70.937
-70.977
-71.016
-71.055
-71.094
-71.132
-71.171
-71.208
-71.244
-71.278
-71.309
-71.337
-71.361
-71.38
-71.394
-71.401
-71.403
-71.397
-71.384
-71.363
-71.334
-71.296
-71.25
-71.194
-71.129
-71.055
-70.971
-70.878
-70.777
-70.667
-70.55
-70.426
-70.298
-70.165
-70.029
-69.893
-69.757
-69.623
-69.492
-69.367
-69.248
-69.138
-69.037
-68.946
-68.866
-68.797
-68.74
-68.695
-68.66
-68.636
-68.621
-68.615
-68.616
-68.622
-68.632
-68.643
-68.653
-68.66
-68.661
-68.651
-68.628
-68.589
-68.529
-68.444
-68.33
-68.183
-67.999
-67.772
-67.5
-67.177
-66.8
-66.363
-65.865
-65.301
-64.67
-63.968
-63.195
-62.35
-61.433
-60.444
-59.386
-58.26
-57.067
-55.812
-54.5
-53.134
-51.718
-50.258
-48.76
-47.233
-45.688
-44.133
-42.575
-41.03
-39.512
-38.035
-36.616
-35.26
-33.966
-32.753
-31.636
-30.61
-29.671
-28.817
-28.041
-27.363
-26.817
-26.395
-26.073
-25.925
-26.033
-26.348
-26.877
-27.641
-28.469
-29.845
-32.236
-34.964
-37.821
-39.564
-38.703
-36.852
-35.069
-34.948
-38.696
-44.315
-50.111
-54.906
-56.762
-56.996
-56.941
-56.878
-57.633
-58.698
-59.43
-59.944
-60.163
-60.159
-60.119
-60.01
-59.813
-59.61
-59.446
-59.396
-59.582
-60.066
-60.862
-61.918
-63.081
-64.224
-65.277
-66.096
-66.496
-66.343
-65.556
-64.32
-63.076
-62.141
-61.723
-61.959
-62.869
-64.484
-66.731
-69.015
-70.305
-69.553
-65.703
-58.011
-45.989
-28.933
-6.286
21.848
54.823
91.451
130.12
169.511
208.269
244.326
275.498
299.814
315.597
322.056
318.85
305.496
282.076
249.539
210.084
166.537
120.931
75.27
30.355
-12.908
-50.752
-80.743
-100.57
-108.313
-107.203
-100.076
-89.546
-79.482
-70.157
-61.645
-54.606
-48.373
-43.385
-40.172
-38.247
-37.144
-36.19
-34.605
-32.219
-29.202
-25.724
-22.028
-18.344
-14.875
-11.876
-9.611
-8.163
-7.471
-7.422
-7.852
-8.63
-9.66
-10.824
-11.987
-13.014
-13.815
-14.347
-14.596
-14.561
-14.23
-13.593
-12.651
-11.436
-9.983
-8.324
-6.488
-4.495
-2.368
-0.141
2.153
4.473
6.795
9.108
11.406
13.691
15.966
18.237
20.517
22.829
25.191
27.622
30.137
32.749
35.474
38.327
41.326
44.489
47.833
51.378
55.137
59.114
63.314
67.732
72.361
77.188
82.193
87.349
92.63
98.018
103.496
109.055
114.682
120.355
126.048
131.734
137.398
143.032
148.632
154.196
159.733
165.26
170.815
176.449
182.198
188.079
194.086
200.201
206.401
212.672
219
225.354
231.687
237.941
244.053
249.959
255.582
260.819
265.533
269.574
272.815
275.158
276.539
276.909
276.226
274.448
271.54
267.487
262.304
256.011
248.636
240.216
230.791
220.448
209.321
197.554
185.283
172.631
159.695
146.569
133.357
120.164
107.102
94.277
81.769
69.658
58.025
46.942
36.492
26.721
17.626
9.201
1.434
-5.694
-12.183
-18.045
-23.318
-28.044
-32.279
-36.099
-39.554
-42.693
-45.577
-48.255
-50.796
-53.252
-55.642
-57.983
-60.286
-62.557
-64.809
-67.055
-69.278
-71.459
-73.571
-75.57
-77.432
-79.139
-80.67
-82.011
-83.144
-84.052
-84.741
-85.219
-85.499
-85.591
-85.504
-85.247
-84.843
-84.316
-83.695
-83.013
-82.295
-81.559
-80.823
-80.102
-79.407
-78.75
-78.133
-77.555
-77.014
-76.512
-76.05
-75.629
-75.247
-74.899
-74.583
-74.293
-74.024
-73.776
-73.545
-73.328
-73.124
-72.932
-72.753
-72.588
-72.437
-72.3
-72.174
-72.059
-71.953
-71.853
-71.759
-71.667
-71.576
-71.485
-71.392
-71.298
-71.201
-71.1
-70.995
-70.885
-70.77
-70.65
-70.524
-70.391
-70.251
-70.105
-69.952
-69.791
-69.622
-69.445
-69.259
-69.063
-68.857
-68.639
-68.41
-68.168
-67.913
-67.644
-67.362
-67.067
-66.758
-66.436
-66.102
-65.756
-65.399
-65.032
-64.655
-64.269
-63.877
-63.477
-63.074
-62.666
-62.258
-61.849
-61.443
-61.04
-60.644
-60.256
-59.879
-59.515
-59.166
-58.834
-58.522
-58.233
-57.969
-57.731
-57.521
-57.342
-57.193
-57.077
-56.994
-56.944
-56.927
-56.943
-56.991
-57.07
-57.178
-57.314
-57.476
-57.661
-57.866
-58.087
-58.321
-58.564
-58.811
-59.057
-59.298
-59.528
-59.744
-59.939
-60.108
-60.245
-60.346
-60.404
-60.415
-60.374
-60.274
-60.112
-59.883
-59.584
-59.211
-58.763
-58.236
-57.629
-56.941
-56.172
-55.323
-54.393
-53.385
-52.301
-51.145
-49.921
-48.635
-47.292
-45.899
-44.465
-42.999
-41.511
-40.01
-38.507
-37.013
-35.538
-34.093
-32.689
-31.334
-30.039
-28.815
-27.672
-26.622
-25.676
-24.842
-24.13
-23.547
-23.103
-22.802
-22.646
-22.637
-22.777
-23.071
-23.529
-24.155
-24.948
-25.906
-27.023
-28.29
-29.695
-31.22
-32.834
-34.511
-36.226
-37.959
-39.702
-41.434
-43.132
-44.765
-46.297
-47.701
-48.967
-50.078
-51.018
-51.79
-52.404
-52.896
-53.322
-53.711
-54.085
-54.466
-54.871
-55.343
-55.932
-56.675
-57.624
-58.84
-60.332
-62.069
-63.959
-65.787
-67.317
-68.336
-68.586
-67.818
-65.92
-62.963
-59.229
-55.228
-51.497
-48.393
-46.21
-45.274
-45.637
-46.873
-48.147
-48.169
-45.49
-39.065
-28.011
-11.272
11.738
40.859
75.345
113.562
153.389
193.068
230.735
264.011
290.862
309.721
319.425
319.871
311.429
294.262
269.014
236.926
199.452
158.448
115.684
72.886
31.887
-5.964
-39.113
-67.516
-91.621
-110.02
-122.111
-125.33
-117.625
-101.214
-78.02
-52.771
-30.191
-11.595
1.011
8.51
12.69
14.18
14.652
13.683
10.598
5.695
-0.857
-7.41
-12.573
-16.069
-17.738
-17.941
-17.095
-15.268
-12.79
-10.291
-8.155
-6.58
-5.607
-5.034
-4.712
-4.586
-4.514
-4.287
-3.776
-2.912
-1.689
-0.198
1.502
3.382
5.405
7.534
9.741
11.993
14.274
16.574
18.887
21.209
23.535
25.861
28.19
30.528
32.885
35.278
37.72
40.221
42.789
45.431
48.157
50.979
53.912
56.965
60.152
63.486
66.982
70.657
74.523
78.583
82.837
87.281
91.907
96.708
101.666
106.756
111.959
117.256
122.631
128.072
133.558
139.071
144.593
150.105
155.591
161.051
166.481
171.882
177.272
182.665
188.083
193.562
199.113
204.742
210.452
216.226
222.053
227.912
233.758
239.55
245.243
250.769
256.059
261.031
265.578
269.607
273.035
275.761
277.713
278.822
279.019
278.265
276.527
273.787
270.051
265.327
259.624
252.986
245.472
237.16
228.157
218.543
208.372
197.723
186.67
175.296
163.702
151.962
140.148
128.338
116.606
105.043
93.737
82.743
72.091
61.802
51.881
42.37
33.341
24.839
16.894
9.522
2.717
-3.512
-9.162
-14.253
-18.833
-22.972
-26.737
-30.162
-33.263
-36.055
-38.558
-40.815
-42.893
-44.835
-46.674
-48.432
-50.128
-51.786
-53.426
-55.04
-56.597
-58.049
-59.365
-60.53
-61.547
-62.419
-63.143
-63.711
-64.11
-64.346
-64.425
-64.355
-64.142
-63.789
-63.304
-62.709
-62.038
-61.329
-60.611
-59.903
-59.218
-58.567
-57.962
-57.413
-56.923
-56.49
-56.111
-55.788
-55.52
-55.311
-55.16
-55.061
-55.008
-54.993
-55.01
-55.055
-55.123
-55.209
-55.311
-55.425
-55.551
-55.689
-55.84
-56
-56.169
-56.342
-56.518
-56.695
-56.87
-57.039
-57.201
-57.354
-57.496
-57.627
-57.747
-57.854
-57.949
-58.032
-58.103
-58.164
-58.214
-58.255
-58.288
-58.315
-58.336
-58.353
-58.368
-58.381
-58.395
-58.41
-58.427
-58.448
-58.471
-58.498
-58.528
-58.562
-58.6
-58.642
-58.688
-58.738
-58.791
-58.849
-58.911
-58.977
-59.046
-59.117
-59.19
-59.265
-59.34
-59.414
-59.487
-59.558
-59.626
-59.69
-59.75
-59.804
-59.851
-59.891
-59.923
-59.947
-59.961
-59.966
-59.961
-59.948
-59.925
-59.893
-59.854
-59.807
-59.754
-59.695
-59.632
-59.565
-59.496
-59.427
-59.358
-59.292
-59.23
-59.174
-59.125
-59.085
-59.056
-59.039
-59.035
-59.047
-59.076
-59.123
-59.188
-59.274
-59.381
-59.51
-59.662
-59.836
-60.033
-60.253
-60.494
-60.756
-61.038
-61.337
-61.654
-61.984
-62.327
-62.681
-63.042
-63.407
-63.773
-64.137
-64.495
-64.842
-65.175
-65.489
-65.78
-66.042
-66.272
-66.466
-66.618
-66.725
-66.782
-66.785
-66.731
-66.616
-66.437
-66.19
-65.872
-65.484
-65.022
-64.486
-63.876
-63.193
-62.436
-61.609
-60.713
-59.751
-58.725
-57.639
-56.497
-55.306
-54.07
-52.795
-51.49
-50.163
-48.823
-47.481
-46.148
-44.834
-43.55
-42.307
-41.117
-39.988
-38.929
-37.949
-37.056
-36.259
-35.571
-34.998
-34.549
-34.231
-34.049
-34.011
-34.121
-34.38
-34.786
-35.338
-36.038
-36.889
-37.901
-39.076
-40.411
-41.9
-43.537
-45.308
-47.198
-49.181
-51.222
-53.286
-55.343
-57.37
-59.348
-61.25
-63.04
-64.681
-66.137
-67.384
-68.409
-69.195
-69.739
-70.05
-70.154
-70.098
-69.937
-69.722
-69.506
-69.343
-69.286
-69.404
-69.755
-70.407
-71.446
-72.871
-74.624
-76.597
-78.575
-80.354
-81.791
-82.647
-82.63
-81.666
-79.828
-77.37
-74.792
-72.403
-70.256
-68.51
-67.371
-66.692
-66.033
-64.535
-60.904
-54.181
-43.844
-29.275
-9.772
14.938
44.677
78.603
115.115
152.742
190.26
226.046
258.051
284.368
303.3
313.679
315.107
307.226
289.719
262.994
228.359
187.62
142.884
96.263
49.789
5.751
-33.406
-65.514
-89.987
-107.048
-116.382
-118.426
-112.818
-99.59
-82.49
-64.869
-49.862
-40.468
-35.228
-32.847
-32.477
-32.086
-32.058
-32.371
-32.494
-32.996
-33.26
-32.489
-30.569
-27.394
-23.413
-19.653
-16.195
-12.202
-7.934
-4.15
-2.372
-5.394
-12.794
-21.548
-28.622
-29.924
-25.27
-18.341
-11.942
-9.131
-10.323
-12.779
-14.891
-15.538
-14.437
-12.724
-10.889
-8.918
-6.883
-4.655
-2.239
0.177
2.537
4.868
7.174
9.464
11.762
14.091
16.484
18.985
21.606
24.334
27.156
30.072
33.099
36.26
39.573
43.045
46.672
50.432
54.295
58.218
62.147
66.034
69.834
73.526
77.115
80.63
84.118
87.608
91.109
94.62
98.132
101.65
105.2
108.818
112.551
116.473
120.682
125.286
130.396
136.075
142.335
149.143
156.424
164.119
172.189
180.59
189.285
198.218
207.313
216.493
225.672
234.71
243.421
251.578
258.926
265.272
270.48
274.463
277.176
278.569
278.592
277.222
274.449
270.271
264.697
257.719
249.342
239.648
228.785
216.958
204.418
191.377
178.008
164.473
150.923
137.497
124.32
111.475
99.026
87.05
75.637
64.902
54.951
45.817
37.487
29.899
22.967
16.614
10.77
5.342
0.227
-4.654
-9.359
-13.906
-18.295
-22.545
-26.705
-30.837
-34.989
-39.178
-43.392
-47.612
-51.815
-55.973
-60.055
-63.999
-67.733
-71.206
-74.383
-77.263
-79.874
-82.237
-84.361
-86.237
-87.838
-89.159
-90.23
-91.066
-91.662
-91.953
-91.825
-91.303
-90.541
-89.696
-88.894
-88.164
-87.478
-86.955
-86.758
-86.775
-86.643
-86.331
-86.245
-86.867
-88.113
-87.831
-82.654
-71.034
-54.813
-39.914
-33.352
-38.407
-52.915
-70.478
-84.798
-92.608
-94.524
-93.609
-92.045
-91.379
-91.443
-90.52
-87.308
-79.764
-68.311
-56.332
-47.276
-45.219
-50.425
-58.919
-67.196
-71.772
-71.951
-70.35
-68.514
-67.467
-67.493
-67.529
-67.286
-66.967
-66.585
-66.3
-66.093
-65.879
-65.732
-65.62
-65.507
-65.382
-65.054
-65.052
-65.921
-66.994
-68.068
-67.825
-64.692
-60.4
-56.111
-53.549
-55.08
-58.611
-62.369
-65.139
-64.916
-63.131
-61.236
-59.55
-58.954
-58.929
-58.812
-58.73
-58.6
-58.466
-58.462
-58.499
-58.504
-58.499
-58.488
-58.463
-58.424
-58.375
-58.316
-58.26
-58.222
-58.194
-58.17
-58.15
-58.131
-58.114
-58.097
-58.078
-58.054
-58.024
-57.99
-57.949
-57.901
-57.847
-57.785
-57.714
-57.634
-57.545
-57.446
-57.336
-57.216
-57.084
-56.94
-56.783
-56.614
-56.431
-56.236
-56.026
-55.802
-55.565
-55.314
-55.05
-54.773
-54.483
-54.183
-53.873
-53.554
-53.229
-52.898
-52.564
-52.229
-51.894
-51.563
-51.237
-50.917
-50.608
-50.309
-50.024
-49.755
-49.503
-49.271
-49.06
-48.872
-48.708
-48.571
-48.46
-48.378
-48.325
-48.3
-48.306
-48.341
-48.405
-48.497
-48.616
-48.761
-48.929
-49.118
-49.325
-49.547
-49.78
-50.02
-50.263
-50.503
-50.736
-50.955
-51.156
-51.333
-51.48
-51.593
-51.664
-51.688
-51.661
-51.577
-51.432
-51.22
-50.938
-50.581
-50.146
-49.63
-49.031
-48.348
-47.578
-46.722
-45.78
-44.753
-43.644
-42.454
-41.188
-39.849
-38.442
-36.974
-35.451
-33.88
-32.271
-30.633
-28.977
-27.316
-25.66
-24.023
-22.417
-20.855
-19.348
-17.909
-16.547
-15.273
-14.096
-13.027
-12.077
-11.257
-10.575
-10.039
-9.655
-9.43
-9.369
-9.474
-9.741
-10.169
-10.759
-11.514
-12.442
-13.544
-14.818
-16.259
-17.857
-19.599
-21.469
-23.443
-25.489
-27.574
-29.671
-31.757
-33.816
-35.821
-37.74
-39.535
-41.166
-42.602
-43.822
-44.804
-45.539
-46.032
-46.3
-46.375
-46.295
-46.094
-45.809
-45.484
-45.164
-44.91
-44.771
-44.813
-45.142
-45.778
-46.675
-47.726
-48.679
-49.284
-49.39
-48.759
-47.122
-44.484
-40.997
-37.021
-33.311
-30.412
-28.564
-28.103
-29.194
-31.472
-34.312
-36.573
-36.441
-32.545
-23.939
-9.511
11.42
38.847
72.381
110.671
151.458
192.874
233.145
269.941
301.163
325.074
340.19
346.048
342.867
330.528
309.186
280.346
246.349
209.49
171.591
132.276
90.027
45.662
2.544
-33.652
-57.093
-65.723
-62.001
-51.35
-39.189
-28.873
-21.012
-14.16
-7.263
-0.197
6.487
11.378
13.592
13.374
11.41
8.759
6.347
4.458
3.135
2.556
2.987
4.517
7.006
10.011
12.929
15.448
17.504
19.052
20.033
20.409
20.194
19.551
18.802
18.177
17.775
17.642
17.769
18.158
18.842
19.821
21.041
22.451
24.015
25.713
27.554
29.538
31.645
33.847
36.107
38.388
40.671
42.949
45.212
47.462
49.698
51.923
54.151
56.403
58.692
61.033
63.436
65.909
68.468
71.13
73.912
76.83
79.903
83.144
86.571
90.197
94.026
98.059
102.293
106.718
111.322
116.089
120.992
126.011
131.127
136.326
141.597
146.925
152.286
157.657
163.016
168.347
173.644
178.903
184.122
189.312
194.492
199.692
204.951
210.297
215.73
221.248
226.83
232.454
238.108
243.77
249.403
254.964
260.4
265.646
270.643
275.309
279.538
283.218
286.227
288.458
289.841
290.314
289.836
288.376
285.898
282.376
277.807
272.2
265.569
257.951
249.382
239.913
229.639
218.664
207.102
195.075
182.68
170.01
157.157
144.213
131.275
118.451
105.847
93.548
81.643
70.204
59.302
49.013
39.376
30.41
22.13
14.53
7.603
1.35
-4.242
-9.205
-13.576
-17.419
-20.815
-23.819
-26.493
-28.89
-31.063
-33.08
-34.993
-36.833
-38.626
-40.385
-42.122
-43.852
-45.585
-47.31
-49.011
-50.655
-52.195
-53.605
-54.865
-55.958
-56.87
-57.582
-58.081
-58.37
-58.459
-58.36
-58.088
-57.652
-57.061
-56.34
-55.516
-54.62
-53.689
-52.748
-51.818
-50.917
-50.061
-49.263
-48.535
-47.88
-47.295
-46.781
-46.338
-45.967
-45.67
-45.444
-45.284
-45.185
-45.142
-45.149
-45.204
-45.303
-45.439
-45.612
-45.818
-46.056
-46.325
-46.624
-46.949
-47.297
-47.664
-48.047
-48.442
-48.846
-49.254
-49.664
-50.071
-50.473
-50.869
-51.257
-51.635
-52.001
-52.354
-52.694
-53.019
-53.329
-53.624
-53.903
-54.165
-54.412
-54.643
-54.858
-55.057
-55.241
-55.41
-55.565
-55.705
-55.831
-55.944
-56.044
-56.131
-56.206
-56.27
-56.322
-56.364
-56.395
-56.418
-56.431
-56.437
-56.434
-56.423
-56.405
-56.379
-56.345
-56.303
-56.254
-56.197
-56.132
-56.06
-55.981
-55.895
-55.804
-55.706
-55.603
-55.495
-55.383
-55.267
-55.148
-55.026
-54.902
-54.777
-54.651
-54.525
-54.401
-54.279
-54.161
-54.048
-53.94
-53.839
-53.745
-53.661
-53.586
-53.522
-53.471
-53.432
-53.408
-53.4
-53.407
-53.432
-53.475
-53.535
-53.614
-53.712
-53.828
-53.962
-54.114
-54.284
-54.471
-54.675
-54.895
-55.131
-55.382
-55.646
-55.924
-56.214
-56.514
-56.823
-57.14
-57.464
-57.793
-58.125
-58.459
-58.794
-59.128
-59.459
-59.786
-60.108
-60.422
-60.727
-61.022
-61.306
-61.576
-61.833
-62.076
-62.304
-62.517
-62.715
-62.898
-63.067
-63.221
-63.361
-63.487
-63.601
-63.702
-63.792
-63.871
-63.942
-64.005
-64.062
-64.115
-64.164
-64.212
-64.261
-64.311
-64.365
-64.425
-64.491
-64.566
-64.653
-64.754
-64.873
-65.01
-65.166
-65.343
-65.545
-65.768
-66.008
-66.265
-66.531
-66.809
-67.112
-67.436
-67.775
-68.151
-68.571
-69.035
-69.563
-70.148
-70.743
-71.347
-71.972
-72.531
-72.95
-73.3
-73.559
-73.679
-73.905
-73.832
-72.942
-71.901
-70.921
-71.048
-74.218
-79.263
-84.439
-87.93
-86.31
-80.085
-72.515
-65.803
-63.415
-66.188
-70.826
-75.388
-77.924
-77.06
-74.738
-72.188
-69.8
-68.362
-67.286
-66.047
-64.819
-63.505
-62.164
-60.926
-59.682
-58.347
-56.919
-55.398
-53.815
-52.203
-50.535
-48.867
-47.389
-46.161
-45.136
-44.344
-43.624
-43.302
-44.428
-46.817
-49.507
-50.956
-48.215
-41.39
-33.469
-27.405
-27.396
-33.819
-42.69
-50.92
-55.201
-54.868
-52.886
-51.095
-50.705
-52.094
-54.02
-55.885
-57.713
-59.444
-61.237
-63.116
-64.887
-66.458
-67.837
-69.006
-69.943
-70.633
-71.083
-71.321
-71.418
-71.45
-71.45
-71.439
-71.44
-71.482
-71.606
-71.853
-72.262
-72.852
-73.653
-74.723
-76.061
-77.607
-79.244
-80.751
-81.874
-82.412
-82.109
-80.652
-77.975
-74.184
-69.471
-64.257
-58.95
-53.85
-49.36
-45.987
-43.311
-40.031
-35.52
-29.193
-21.362
-13.839
-5.292
7.858
28.597
60.592
103.074
150.581
198.655
242.517
279.15
308.761
330.728
344.264
348.739
342.735
325.544
297.496
260.371
217.359
171.447
124.664
77.052
27.613
-22.536
-69.182
-105.776
-126.259
-128.349
-114.706
-91.223
-63.25
-34.757
-8.607
12.726
25.92
28.718
21.954
9.892
-2.191
-10.671
-14.552
-15.949
-16.949
-17.827
-18.096
-16.737
-13.424
-9.043
-4.671
-0.909
2.02
4.037
5.188
5.477
4.956
3.933
2.783
1.717
0.87
0.299
-0.02
-0.062
0.199
0.733
1.508
2.489
3.644
4.967
6.463
8.126
9.943
11.893
13.941
16.058
18.217
20.4
22.603
24.818
27.043
29.277
31.522
33.789
36.095
38.452
40.87
43.358
45.926
48.592
51.374
54.29
57.354
60.576
63.968
67.541
71.308
75.28
79.464
83.857
88.454
93.249
98.231
103.387
108.694
114.123
119.651
125.254
130.912
136.613
142.332
148.049
153.74
159.38
164.953
170.453
175.876
181.223
186.508
191.744
196.958
202.189
207.455
212.759
218.096
223.444
228.794
234.127
239.415
244.626
249.72
254.639
259.331
263.729
267.737
271.264
274.2
276.421
277.839
278.386
278.006
276.663
274.311
270.911
266.458
260.955
254.414
246.867
238.334
228.861
218.546
207.485
195.801
183.637
171.106
158.311
145.368
132.381
119.469
106.763
94.352
82.32
70.752
59.718
49.311
39.599
30.598
22.32
14.753
7.869
1.656
-3.903
-8.854
-13.244
-17.137
-20.619
-23.747
-26.566
-29.135
-31.505
-33.744
-35.914
-38.037
-40.131
-42.206
-44.264
-46.314
-48.364
-50.395
-52.383
-54.297
-56.091
-57.74
-59.229
-60.539
-61.656
-62.561
-63.239
-63.694
-63.937
-63.981
-63.837
-63.517
-63.03
-62.401
-61.657
-60.828
-59.948
-59.042
-58.127
-57.223
-56.345
-55.504
-54.712
-53.974
-53.286
-52.65
-52.067
-51.538
-51.065
-50.645
-50.275
-49.95
-49.663
-49.413
-49.194
-49.003
-48.837
-48.693
-48.57
-48.466
-48.382
-48.316
-48.267
-48.231
-48.205
-48.188
-48.176
-48.166
-48.156
-48.143
-48.126
-48.102
-48.073
-48.036
-47.992
-47.94
-47.88
-47.813
-47.739
-47.659
-47.574
-47.484
-47.391
-47.297
-47.202
-47.109
-47.019
-46.934
-46.855
-46.782
-46.718
-46.663
-46.618
-46.585
-46.563
-46.555
-46.56
-46.58
-46.616
-46.668
-46.737
-46.822
-46.923
-47.039
-47.171
-47.316
-47.474
-47.643
-47.822
-48.008
-48.201
-48.399
-48.599
-48.8
-48.999
-49.195
-49.386
-49.569
-49.742
-49.904
-50.052
-50.186
-50.304
-50.405
-50.488
-50.551
-50.595
-50.617
-50.618
-50.597
-50.554
-50.489
-50.402
-50.294
-50.165
-50.016
-49.849
-49.665
-49.466
-49.253
-49.029
-48.795
-48.553
-48.306
-48.056
-47.805
-47.555
-47.31
-47.07
-46.839
-46.619
-46.411
-46.217
-46.04
-45.879
-45.738
-45.616
-45.514
-45.434
-45.376
-45.341
-45.328
-45.338
-45.371
-45.425
-45.501
-45.597
-45.712
-45.845
-45.994
-46.157
-46.333
-46.519
-46.714
-46.916
-47.121
-47.329
-47.536
-47.741
-47.942
-48.137
-48.324
-48.501
-48.667
-48.821
-48.961
-49.089
-49.201
-49.3
-49.383
-49.453
-49.508
-49.549
-49.578
-49.594
-49.601
-49.598
-49.589
-49.574
-49.557
-49.538
-49.521
-49.508
-49.502
-49.505
-49.519
-49.548
-49.593
-49.657
-49.743
-49.851
-49.983
-50.142
-50.326
-50.538
-50.777
-51.044
-51.336
-51.654
-51.996
-52.36
-52.744
-53.145
-53.562
-53.989
-54.423
-54.861
-55.298
-55.729
-56.148
-56.55
-56.929
-57.28
-57.598
-57.875
-58.106
-58.285
-58.406
-58.464
-58.453
-58.368
-58.203
-57.955
-57.621
-57.196
-56.679
-56.068
-55.361
-54.557
-53.659
-52.666
-51.581
-50.406
-49.145
-47.801
-46.381
-44.89
-43.335
-41.724
-40.066
-38.372
-36.652
-34.918
-33.182
-31.455
-29.75
-28.08
-26.457
-24.892
-23.396
-21.98
-20.657
-19.437
-18.332
-17.353
-16.51
-15.812
-15.268
-14.886
-14.671
-14.623
-14.744
-15.035
-15.5
-16.145
-16.973
-17.979
-19.158
-20.505
-22.005
-23.645
-25.397
-27.227
-29.104
-30.999
-32.89
-34.76
-36.584
-38.334
-39.979
-41.486
-42.839
-44.021
-45.016
-45.808
-46.403
-46.826
-47.127
-47.366
-47.585
-47.808
-48.06
-48.378
-48.802
-49.372
-50.127
-51.077
-52.237
-53.669
-55.363
-57.235
-59.162
-60.876
-62.092
-62.626
-62.224
-60.582
-57.679
-53.624
-48.581
-43.059
-37.575
-32.413
-28.025
-24.912
-22.41
-19.619
-16.385
-11.632
-5.451
1.84
13.119
30.419
55.118
87.979
126.032
166.612
208.175
249.361
288.499
321.578
344.031
351.35
342.316
320.133
288.242
250.983
211.114
168.41
123.706
77.957
32.741
-8.579
-43.545
-70.884
-89.934
-101.121
-105.199
-102.516
-93.949
-81.228
-66.192
-50.728
-36.434
-24.085
-14.188
-7.434
-4.05
-3.613
-5.405
-8.32
-11.293
-13.854
-15.685
-16.343
-15.633
-13.607
-10.504
-6.929
-3.532
-0.59
1.762
3.399
4.329
4.575
4.212
3.521
2.837
2.344
2.135
2.247
2.647
3.339
4.343
5.622
7.118
8.787
10.593
12.526
14.596
16.786
19.068
21.404
23.753
26.089
28.402
30.689
32.951
35.19
37.411
39.626
41.855
44.112
46.411
48.764
51.18
53.671
56.254
58.946
61.771
64.748
67.897
71.235
74.77
78.505
82.44
86.571
90.886
95.367
99.99
104.733
109.577
114.512
119.527
124.613
129.75
134.917
140.087
145.247
150.392
155.519
160.63
165.733
170.848
176.017
181.292
186.712
192.299
198.054
203.959
210.002
216.163
222.424
228.756
235.11
241.42
247.624
253.653
259.426
264.848
269.779
274.063
277.57
280.193
281.852
282.493
282.057
280.497
277.784
273.911
268.901
262.796
255.628
247.439
238.282
228.224
217.396
205.951
194.022
181.738
169.21
156.544
143.86
131.284
118.911
106.816
95.052
83.656
72.687
62.204
52.26
42.91
34.156
25.976
18.361
11.296
4.758
-1.278
-6.868
-12.089
-16.984
-21.582
-25.9
-29.941
-33.73
-37.304
-40.694
-43.941
-47.063
-50.066
-52.962
-55.763
-58.464
-61.057
-63.51
-65.77
-67.811
-69.621
-71.196
-72.547
-73.673
-74.57
-75.24
-75.686
-75.913
-75.931
-75.748
-75.369
-74.809
-74.09
-73.245
-72.317
-71.338
-70.33
-69.314
-68.303
-67.31
-66.348
-65.424
-64.541
-63.702
-62.913
-62.179
-61.505
-60.896
-60.349
-59.863
-59.432
-59.05
-58.714
-58.42
-58.164
-57.943
-57.755
-57.597
-57.471
-57.375
-57.307
-57.265
-57.245
-57.243
-57.255
-57.28
-57.311
-57.347
-57.384
-57.42
-57.454
-57.484
-57.51
-57.53
-57.545
-57.553
-57.556
-57.554
-57.546
-57.534
-57.519
-57.502
-57.485
-57.469
-57.456
-57.447
-57.445
-57.451
-57.466
-57.491
-57.528
-57.577
-57.64
-57.717
-57.809
-57.917
-58.041
-58.183
-58.344
-58.523
-58.72
-58.935
-59.168
-59.418
-59.683
-59.962
-60.253
-60.556
-60.867
-61.186
-61.511
-61.839
-62.169
-62.499
-62.826
-63.149
-63.465
-63.773
-64.072
-64.36
-64.636
-64.899
-65.148
-65.383
-65.603
-65.807
-65.997
-66.172
-66.331
-66.476
-66.607
-66.724
-66.829
-66.923
-67.006
-67.082
-67.151
-67.215
-67.276
-67.337
-67.4
-67.466
-67.538
-67.618
-67.708
-67.811
-67.927
-68.059
-68.208
-68.375
-68.561
-68.767
-68.991
-69.235
-69.498
-69.779
-70.075
-70.387
-70.711
-71.046
-71.388
-71.735
-72.083
-72.429
-72.768
-73.098
-73.413
-73.709
-73.982
-74.226
-74.437
-74.609
-74.738
-74.818
-74.845
-74.813
-74.718
-74.556
-74.322
-74.014
-73.627
-73.16
-72.611
-71.979
-71.262
-70.462
-69.579
-68.615
-67.574
-66.458
-65.272
-64.024
-62.719
-61.365
-59.972
-58.547
-57.1
-55.64
-54.178
-52.721
-51.28
-49.863
-48.481
-47.146
-45.869
-44.661
-43.534
-42.497
-41.56
-40.734
-40.026
-39.441
-38.982
-38.652
-38.461
-38.418
-38.532
-38.807
-39.241
-39.832
-40.574
-41.458
-42.469
-43.581
-44.771
-46.016
-47.3
-48.613
-49.944
-51.273
-52.57
-53.799
-54.929
-55.946
-56.838
-57.592
-58.206
-58.685
-59.06
-59.38
-59.682
-59.989
-60.322
-60.693
-61.134
-61.693
-62.416
-63.366
-64.627
-66.225
-68.125
-70.232
-72.354
-74.277
-75.814
-76.719
-76.69
-75.574
-73.45
-70.613
-67.597
-64.935
-62.922
-61.821
-62.007
-63.599
-66.23
-69.081
-70.842
-69.995
-65.429
-56.169
-40.863
-19.069
8.378
40.51
75.579
113.3
155.957
203.488
253.679
300.581
333.686
347.255
339.828
314.79
282.622
249.444
218.334
190.798
161.663
128.886
93.421
54.461
14.909
-23.228
-61.219
-96.749
-126.568
-148.129
-157.053
-153.437
-141.577
-124.913
-107.201
-88.915
-68.51
-47.416
-28.713
-16.996
-15.455
-22.202
-32.017
-39.619
-41.473
-37.523
-31.064
-24.31
-18.465
-14.304
-10.34
-6.054
-1.885
2.437
6.181
8.698
10.096
10.275
9.4
7.961
6.3
4.622
3.097
1.788
0.691
-0.149
-0.688
-0.935
-0.913
-0.614
-0.02
0.898
2.182
3.841
5.843
8.138
10.652
13.307
16.047
18.838
21.657
24.492
27.342
30.204
33.087
36
38.937
41.89
44.857
47.835
50.839
53.894
57.027
60.276
63.673
67.245
71.014
74.996
79.197
83.615
88.242
93.066
98.073
103.248
108.569
114.008
119.541
125.143
130.79
136.462
142.132
147.767
153.337
158.816
164.182
169.43
174.557
179.564
184.47
189.301
194.089
198.882
203.703
208.555
213.445
218.362
223.299
228.258
233.223
238.175
243.088
247.92
252.608
257.089
261.258
264.992
268.171
270.66
272.356
273.181
273.058
271.924
269.727
266.406
261.915
256.23
249.32
241.185
231.866
221.418
209.953
197.615
184.541
170.885
156.797
142.403
127.844
113.259
98.777
84.546
70.724
57.451
44.876
33.125
22.268
12.362
3.419
-4.582
-11.66
-17.848
-23.201
-27.761
-31.58
-34.728
-37.269
-39.293
-40.925
-42.274
-43.457
-44.574
-45.688
-46.85
-48.1
-49.448
-50.906
-52.475
-54.139
-55.889
-57.721
-59.612
-61.543
-63.475
-65.345
-67.1
-68.696
-70.094
-71.277
-72.233
-72.952
-73.44
-73.711
-73.78
-73.669
-73.397
-72.974
-72.419
-71.753
-71.002
-70.202
-69.383
-68.565
-67.767
-67.001
-66.277
-65.603
-64.981
-64.406
-63.875
-63.383
-62.929
-62.515
-62.138
-61.796
-61.485
-61.201
-60.94
-60.701
-60.484
-60.285
-60.105
-59.943
-59.799
-59.676
-59.575
-59.496
-59.439
-59.401
-59.382
-59.381
-59.396
-59.425
-59.466
-59.518
-59.58
-59.65
-59.729
-59.814
-59.906
-60.002
-60.102
-60.205
-60.31
-60.417
-60.524
-60.631
-60.736
-60.838
-60.936
-61.028
-61.114
-61.191
-61.259
-61.317
-61.363
-61.397
-61.417
-61.425
-61.418
-61.398
-61.365
-61.318
-61.26
-61.19
-61.11
-61.021
-60.924
-60.821
-60.713
-60.602
-60.49
-60.377
-60.267
-60.16
-60.059
-59.965
-59.881
-59.808
-59.75
-59.707
-59.682
-59.676
-59.693
-59.733
-59.798
-59.89
-60.009
-60.158
-60.335
-60.542
-60.779
-61.044
-61.338
-61.659
-62.005
-62.375
-62.765
-63.175
-63.6
-64.037
-64.484
-64.936
-65.389
-65.839
-66.283
-66.714
-67.13
-67.524
-67.893
-68.232
-68.536
-68.8
-69.02
-69.191
-69.309
-69.37
-69.37
-69.304
-69.169
-68.963
-68.684
-68.328
-67.895
-67.383
-66.792
-66.122
-65.374
-64.55
-63.651
-62.681
-61.641
-60.538
-59.374
-58.156
-56.89
-55.583
-54.242
-52.877
-51.496
-50.11
-48.726
-47.355
-46.006
-44.689
-43.412
-42.183
-41.01
-39.903
-38.872
-37.926
-37.074
-36.324
-35.683
-35.158
-34.757
-34.485
-34.342
-34.328
-34.447
-34.703
-35.105
-35.658
-36.362
-37.212
-38.205
-39.328
-40.572
-41.917
-43.334
-44.795
-46.276
-47.757
-49.228
-50.67
-52.059
-53.365
-54.549
-55.587
-56.47
-57.184
-57.72
-58.084
-58.294
-58.386
-58.426
-58.448
-58.485
-58.572
-58.735
-59.023
-59.493
-60.185
-61.156
-62.477
-64.147
-66.123
-68.308
-70.485
-72.447
-74.026
-74.988
-75.09
-74.227
-72.438
-69.96
-67.241
-64.648
-62.339
-60.441
-59.137
-58.436
-58.007
-57.156
-54.79
-49.8
-41.524
-29.455
-12.879
8.692
35.269
66.397
100.797
136.793
173.116
208.415
240.78
268.332
289.256
301.975
306.022
301.38
287.64
264.798
233.573
195.618
153.894
111.158
68.612
25.762
-18.467
-63.321
-105.303
-138.243
-156.138
-156.904
-142.941
-120.789
-97.606
-77.634
-61.749
-48.2
-35.449
-23.546
-13.795
-7.77
-5.789
-7.019
-10.246
-14.279
-18.262
-21.637
-23.823
-24.407
-23.354
-20.921
-17.579
-13.859
-10.256
-7.094
-4.601
-2.924
-2.042
-1.843
-2.123
-2.606
-3.023
-3.218
-3.116
-2.692
-1.969
-0.961
0.309
1.786
3.413
5.151
6.983
8.907
10.922
13.011
15.145
17.292
19.43
21.55
23.652
25.739
27.816
29.889
31.972
34.084
36.24
38.452
40.731
43.086
45.529
48.078
50.747
53.552
56.513
59.644
62.965
66.486
70.21
74.137
78.265
82.581
87.075
91.729
96.513
101.406
106.388
111.443
116.561
121.725
126.913
132.101
137.267
142.395
147.482
152.529
157.534
162.513
167.495
172.514
177.625
182.866
188.248
193.775
199.435
205.21
211.093
217.059
223.066
229.068
235.004
240.807
246.415
251.739
256.655
261.03
264.718
267.586
269.546
270.516
270.428
269.239
266.911
263.428
258.817
253.106
246.326
238.522
229.732
220.022
209.518
198.354
186.679
174.645
162.375
149.998
137.657
125.461
113.502
101.857
90.563
79.659
69.203
59.242
49.831
41.018
32.795
25.148
18.06
11.492
5.409
-0.239
-5.535
-10.535
-15.269
-19.764
-24.02
-28.036
-31.841
-35.457
-38.906
-42.229
-45.433
-48.527
-51.527
-54.425
-57.208
-59.85
-62.301
-64.523
-66.503
-68.233
-69.72
-70.975
-71.996
-72.79
-73.367
-73.725
-73.872
-73.813
-73.55
-73.097
-72.475
-71.712
-70.847
-69.918
-68.948
-67.96
-66.972
-65.994
-65.04
-64.12
-63.236
-62.394
-61.602
-60.867
-60.197
-59.597
-59.069
-58.612
-58.222
-57.894
-57.625
-57.412
-57.249
-57.135
-57.066
-57.041
-57.06
-57.121
-57.223
-57.362
-57.535
-57.736
-57.963
-58.211
-58.475
-58.749
-59.031
-59.317
-59.602
-59.884
-60.161
-60.428
-60.684
-60.926
-61.152
-61.36
-61.549
-61.717
-61.864
-61.99
-62.094
-62.177
-62.24
-62.283
-62.307
-62.313
-62.302
-62.276
-62.235
-62.181
-62.114
-62.035
-61.947
-61.85
-61.745
-61.635
-61.521
-61.405
-61.287
-61.17
-61.053
-60.939
-60.828
-60.72
-60.617
-60.518
-60.425
-60.338
-60.257
-60.183
-60.116
-60.055
-60.002
-59.955
-59.915
-59.882
-59.855
-59.834
-59.819
-59.81
-59.807
-59.809
-59.817
-59.83
-59.849
-59.874
-59.904
-59.939
-59.98
-60.026
-60.077
-60.133
-60.195
-60.262
-60.335
-60.414
-60.498
-60.588
-60.684
-60.785
-60.892
-61.003
-61.119
-61.24
-61.364
-61.492
-61.622
-61.754
-61.887
-62.019
-62.15
-62.278
-62.401
-62.517
-62.625
-62.722
-62.807
-62.875
-62.926
-62.956
-62.963
-62.943
-62.895
-62.815
-62.701
-62.549
-62.357
-62.123
-61.844
-61.517
-61.14
-60.712
-60.231
-59.695
-59.103
-58.455
-57.749
-56.985
-56.163
-55.284
-54.349
-53.359
-52.317
-51.224
-50.084
-48.901
-47.68
-46.425
-45.143
-43.84
-42.525
-41.205
-39.889
-38.585
-37.302
-36.049
-34.836
-33.67
-32.559
-31.511
-30.534
-29.637
-28.828
-28.116
-27.51
-27.015
-26.64
-26.392
-26.276
-26.293
-26.445
-26.733
-27.162
-27.741
-28.473
-29.357
-30.392
-31.574
-32.895
-34.342
-35.897
-37.531
-39.216
-40.927
-42.644
-44.357
-46.047
-47.694
-49.268
-50.735
-52.074
-53.273
-54.319
-55.198
-55.911
-56.475
-56.928
-57.337
-57.747
-58.186
-58.668
-59.201
-59.812
-60.54
-61.434
-62.535
-63.874
-65.48
-67.361
-69.508
-71.822
-74.074
-75.98
-77.262
-77.654
-76.96
-75.116
-72.071
-68.049
-63.682
-59.431
-55.743
-52.73
-49.725
-46.673
-43.964
-42.116
-42.325
-43.371
-41.763
-33.755
-14.812
15.482
53.299
94.78
134.987
171.674
205.857
236.925
263.938
285.58
299.184
303.548
298.843
284.998
262.427
232.294
195.921
154.903
111.775
69.302
29.04
-7.359
-39.182
-67.799
-92.521
-111.328
-121.973
-120.707
-106.654
-82.498
-52.715
-23.506
-0.681
11.427
11.607
1.572
-14.272
-28.909
-38.132
-40.373
-36.211
-29.978
-23.913
-18.85
-15.806
-13.247
-10.702
-8.53
-6.13
-4.078
-2.879
-2.338
-2.564
-3.339
-4.179
-4.926
-5.51
-5.852
-5.985
-5.905
-5.567
-4.958
-4.099
-3.007
-1.71
-0.234
1.416
3.231
5.198
7.293
9.481
11.728
14
16.277
18.553
20.823
23.082
25.329
27.563
29.794
32.041
34.319
36.637
39.004
41.431
43.93
46.523
49.227
52.055
55.018
58.13
61.406
64.864
68.514
72.359
76.398
80.626
85.034
89.613
94.346
99.204
104.162
109.198
114.295
119.445
124.63
129.826
135.005
140.139
145.212
150.22
155.161
160.035
164.853
169.638
174.437
179.307
184.289
189.403
194.646
200.007
205.482
211.067
216.755
222.527
228.34
234.143
239.885
245.505
250.916
256.003
260.61
264.57
267.751
270.051
271.399
271.731
270.978
269.073
265.969
261.644
256.099
249.34
241.368
232.21
221.936
210.661
198.554
185.793
172.532
158.907
145.036
131.048
117.085
103.291
89.798
76.716
64.142
52.182
40.953
30.543
21.001
12.336
4.507
-2.529
-8.806
-14.361
-19.229
-23.464
-27.14
-30.336
-33.133
-35.602
-37.805
-39.817
-41.726
-43.6
-45.486
-47.407
-49.358
-51.337
-53.346
-55.382
-57.434
-59.483
-61.497
-63.441
-65.276
-66.971
-68.503
-69.846
-70.975
-71.871
-72.526
-72.946
-73.146
-73.142
-72.947
-72.577
-72.052
-71.396
-70.637
-69.805
-68.931
-68.042
-67.158
-66.299
-65.481
-64.716
-64.013
-63.376
-62.803
-62.294
-61.848
-61.466
-61.147
-60.887
-60.683
-60.528
-60.417
-60.345
-60.306
-60.296
-60.31
-60.346
-60.4
-60.47
-60.554
-60.65
-60.756
-60.867
-60.98
-61.091
-61.197
-61.294
-61.379
-61.449
-61.502
-61.534
-61.547
-61.537
-61.505
-61.45
-61.371
-61.268
-61.14
-60.989
-60.816
-60.62
-60.404
-60.169
-59.916
-59.649
-59.368
-59.076
-58.775
-58.468
-58.155
-57.84
-57.524
-57.21
-56.899
-56.594
-56.297
-56.009
-55.733
-55.47
-55.221
-54.988
-54.772
-54.574
-54.395
-54.234
-54.092
-53.97
-53.867
-53.784
-53.721
-53.677
-53.651
-53.645
-53.656
-53.685
-53.729
-53.789
-53.863
-53.948
-54.045
-54.152
-54.266
-54.387
-54.512
-54.641
-54.772
-54.902
-55.032
-55.158
-55.28
-55.396
-55.506
-55.606
-55.698
-55.778
-55.848
-55.904
-55.948
-55.978
-55.993
-55.993
-55.978
-55.947
-55.899
-55.836
-55.755
-55.659
-55.547
-55.42
-55.279
-55.124
-54.957
-54.78
-54.592
-54.397
-54.195
-53.989
-53.779
-53.569
-53.36
-53.155
-52.954
-52.761
-52.577
-52.405
-52.246
-52.103
-51.977
-51.87
-51.784
-51.72
-51.678
-51.661
-51.669
-51.702
-51.761
-51.846
-51.956
-52.091
-52.251
-52.433
-52.636
-52.858
-53.097
-53.349
-53.612
-53.882
-54.155
-54.428
-54.696
-54.954
-55.198
-55.423
-55.625
-55.797
-55.935
-56.033
-56.086
-56.089
-56.038
-55.928
-55.754
-55.512
-55.199
-54.811
-54.346
-53.802
-53.175
-52.467
-51.675
-50.801
-49.845
-48.808
-47.694
-46.506
-45.247
-43.924
-42.542
-41.107
-39.629
-38.115
-36.575
-35.02
-33.46
-31.904
-30.366
-28.855
-27.382
-25.957
-24.591
-23.294
-22.077
-20.954
-19.933
-19.026
-18.242
-17.59
-17.081
-16.72
-16.511
-16.457
-16.56
-16.826
-17.265
-17.881
-18.675
-19.643
-20.78
-22.077
-23.522
-25.094
-26.762
-28.496
-30.27
-32.062
-33.86
-35.644
-37.389
-39.062
-40.626
-42.054
-43.334
-44.453
-45.394
-46.158
-46.759
-47.236
-47.658
-48.074
-48.508
-48.983
-49.516
-50.141
-50.91
-51.874
-53.067
-54.524
-56.282
-58.334
-60.631
-63.04
-65.322
-67.211
-68.485
-68.902
-68.207
-66.335
-63.369
-59.549
-55.36
-51.176
-47.142
-43.522
-40.641
-38.434
-36.533
-34.203
-30.225
-23.657
-14.002
-0.51
17.813
41.453
70.406
104.077
140.459
177.653
214.884
250.333
282.782
311.288
332.178
343.089
341.871
326.024
297.622
259.388
214.394
167.03
118.785
71.054
26.229
-13.881
-46.651
-70.252
-84.592
-90.049
-87.507
-78.492
-64.88
-48.947
-33.116
-19.062
-7.613
0.648
5.289
6.4
4.556
0.877
-3.125
-6.519
-8.989
-10.25
-10.051
-8.342
-5.241
-1.273
2.696
6.155
8.941
10.957
12.195
12.657
12.342
11.44
10.306
9.196
8.263
7.586
7.157
6.988
7.114
7.536
8.225
9.143
10.251
11.528
12.974
14.584
16.341
18.221
20.186
22.203
24.24
26.279
28.314
30.34
32.356
34.363
36.365
38.372
40.403
42.471
44.583
46.75
48.982
51.292
53.701
56.224
58.879
61.678
64.634
67.759
71.059
74.541
78.21
82.072
86.133
90.396
94.857
99.512
104.35
109.36
114.527
119.828
125.232
130.707
136.221
141.753
147.294
152.828
158.337
163.802
169.198
174.516
179.759
184.923
190
194.982
199.862
204.653
209.39
214.092
218.769
223.404
227.957
232.4
236.708
240.841
244.762
248.409
251.697
254.576
257.011
258.958
260.381
261.205
261.326
260.671
259.188
256.852
253.659
249.59
244.62
238.763
232.047
224.528
216.284
207.344
197.724
187.462
176.599
165.225
153.463
141.412
129.154
116.778
104.369
92.043
79.932
68.12
56.668
45.625
35.027
24.959
15.513
6.751
-1.281
-8.57
-15.135
-20.976
-26.094
-30.522
-34.309
-37.536
-40.308
-42.688
-44.72
-46.45
-47.92
-49.206
-50.386
-51.506
-52.605
-53.706
-54.822
-55.975
-57.187
-58.446
-59.728
-60.991
-62.18
-63.268
-64.24
-65.081
-65.778
-66.31
-66.66
-66.828
-66.825
-66.66
-66.343
-65.88
-65.278
-64.559
-63.753
-62.89
-62.006
-61.125
-60.266
-59.445
-58.675
-57.968
-57.332
-56.768
-56.271
-55.838
-55.469
-55.163
-54.92
-54.735
-54.602
-54.515
-54.466
-54.452
-54.467
-54.506
-54.566
-54.643
-54.735
-54.84
-54.959
-55.089
-55.229
-55.376
-55.526
-55.678
-55.829
-55.976
-56.117
-56.25
-56.372
-56.484
-56.585
-56.674
-56.75
-56.816
-56.869
-56.911
-56.943
-56.965
-56.977
-56.981
-56.977
-56.966
-56.948
-56.924
-56.894
-56.86
-56.822
-56.779
-56.731
-56.681
-56.626
-56.568
-56.508
-56.444
-56.378
-56.31
-56.239
-56.167
-56.093
-56.017
-55.94
-55.861
-55.78
-55.697
-55.613
-55.525
-55.435
-55.343
-55.248
-55.15
-55.051
-54.949
-54.845
-54.74
-54.635
-54.529
-54.425
-54.322
-54.222
-54.126
-54.034
-53.947
-53.868
-53.795
-53.732
-53.678
-53.634
-53.602
-53.581
-53.574
-53.58
-53.6
-53.635
-53.684
-53.749
-53.828
-53.922
-54.03
-54.153
-54.29
-54.44
-54.602
-54.776
-54.961
-55.155
-55.356
-55.565
-55.778
-55.995
-56.214
-56.433
-56.652
-56.867
-57.078
-57.282
-57.479
-57.667
-57.844
-58.01
-58.161
-58.298
-58.42
-58.525
-58.614
-58.685
-58.739
-58.776
-58.796
-58.799
-58.786
-58.758
-58.715
-58.66
-58.592
-58.515
-58.428
-58.334
-58.235
-58.132
-58.028
-57.924
-57.822
-57.722
-57.63
-57.547
-57.477
-57.422
-57.38
-57.355
-57.353
-57.373
-57.408
-57.453
-57.499
-57.548
-57.614
-57.698
-57.785
-57.886
-58.03
-58.238
-58.537
-58.926
-59.366
-59.84
-60.39
-60.968
-61.418
-61.706
-61.872
-61.892
-61.926
-61.665
-60.16
-57.608
-54.876
-53.389
-55.837
-62.055
-69.334
-74.975
-75.15
-69.607
-61.961
-55.006
-51.761
-52.754
-55.278
-57.669
-58.795
-58.311
-57.32
-56.325
-55.292
-54.261
-53.068
-51.675
-50.236
-48.8
-47.347
-45.889
-44.439
-43.001
-41.578
-40.167
-38.751
-37.334
-35.936
-34.572
-33.248
-31.975
-30.758
-29.606
-28.534
-27.551
-26.666
-25.887
-25.219
-24.671
-24.248
-23.959
-23.805
-23.786
-23.902
-24.155
-24.554
-25.107
-25.821
-26.693
-27.72
-28.897
-30.217
-31.667
-33.229
-34.87
-36.558
-38.266
-39.973
-41.666
-43.322
-44.907
-46.382
-47.706
-48.852
-49.812
-50.58
-51.14
-51.492
-51.646
-51.631
-51.512
-51.35
-51.19
-51.082
-51.069
-51.199
-51.557
-52.251
-53.333
-54.801
-56.561
-58.433
-60.278
-61.983
-63.372
-64.216
-64.327
-63.628
-62.322
-60.862
-59.613
-58.82
-58.633
-59.102
-60.251
-61.951
-63.556
-63.97
-62.067
-56.77
-47.299
-33.173
-13.844
11.053
41.205
75.743
113.399
152.54
191.759
229.735
264.698
294.806
318.576
334.812
342.747
342.019
332.119
312.734
284.779
250.194
210.917
168.454
122.611
72.257
18.463
-34.734
-80.383
-111.309
-124.471
-122.271
-110.51
-94.845
-77.927
-58.411
-35.544
-11.538
9.772
22.521
24.659
19.372
10.247
1.806
-3.913
-8.572
-12.8
-16.78
-20.28
-21.878
-21.128
-18.56
-14.737
-10.428
-6.378
-2.956
-0.351
1.286
2.005
2.005
1.464
0.635
-0.165
-0.765
-1.087
-1.08
-0.779
-0.217
0.609
1.654
2.864
4.211
5.675
7.25
8.95
10.767
12.677
14.653
16.66
18.681
20.711
22.746
24.786
26.833
28.886
30.956
33.058
35.205
37.407
39.673
42.009
44.429
46.948
49.584
52.354
55.27
58.342
61.578
64.991
68.589
72.385
76.384
80.584
84.982
89.571
94.341
99.281
104.367
109.569
114.858
120.21
125.603
131.023
136.445
141.844
147.188
152.446
157.598
162.638
167.558
172.358
177.05
181.654
186.212
190.777
195.383
200.048
204.78
209.573
214.428
219.347
224.329
229.362
234.423
239.469
244.442
249.272
253.863
258.094
261.82
264.888
267.168
268.547
268.955
268.334
266.624
263.763
259.689
254.339
247.703
239.82
230.643
220.145
208.477
195.767
182.181
168.09
153.193
137.185
120.883
104.634
89.803
78.006
67.787
58.212
47.833
34.575
20.449
7.152
-4.186
-11.736
-16.873
-21.009
-24.507
-28.244
-31.821
-34.706
-37.108
-39.064
-40.705
-42.236
-43.677
-45.035
-46.396
-47.822
-49.331
-50.922
-52.588
-54.313
-56.084
-57.904
-59.748
-61.577
-63.352
-65.041
-66.626
-68.088
-69.399
-70.535
-71.463
-72.171
-72.678
-72.924
-72.827
-72.468
-71.893
-71.09
-70.23
-68.938
-66.867
-64.655
-62.531
-61.736
-63.55
-66.871
-71.114
-74.03
-73.24
-69.433
-62.762
-55.978
-52.012
-51.164
-54.315
-59.193
-63.306
-65.978
-65.92
-64.366
-62.758
-61.356
-60.868
-60.887
-60.853
-60.862
-60.829
-60.801
-60.899
-61.033
-61.132
-61.204
-61.237
-61.228
-61.181
-61.099
-60.985
-60.849
-60.707
-60.554
-60.387
-60.209
-60.02
-59.821
-59.614
-59.4
-59.179
-58.954
-58.727
-58.499
-58.274
-58.052
-57.835
-57.623
-57.418
-57.222
-57.034
-56.857
-56.69
-56.535
-56.393
-56.264
-56.148
-56.046
-55.958
-55.883
-55.821
-55.772
-55.734
-55.706
-55.688
-55.677
-55.673
-55.675
-55.681
-55.691
-55.703
-55.716
-55.729
-55.743
-55.755
-55.766
-55.775
-55.782
-55.787
-55.79
-55.79
-55.789
-55.786
-55.781
-55.775
-55.767
-55.757
-55.747
-55.735
-55.723
-55.711
-55.698
-55.687
-55.677
-55.669
-55.664
-55.663
-55.665
-55.671
-55.682
-55.699
-55.72
-55.747
-55.779
-55.816
-55.857
-55.902
-55.949
-55.999
-56.05
-56.1
-56.149
-56.195
-56.238
-56.274
-56.305
-56.328
-56.343
-56.348
-56.343
-56.327
-56.299
-56.259
-56.206
-56.139
-56.057
-55.961
-55.85
-55.723
-55.582
-55.424
-55.252
-55.065
-54.863
-54.648
-54.421
-54.182
-53.933
-53.675
-53.411
-53.142
-52.87
-52.599
-52.33
-52.067
-51.811
-51.566
-51.333
-51.117
-50.917
-50.739
-50.582
-50.45
-50.344
-50.266
-50.217
-50.2
-50.214
-50.262
-50.344
-50.461
-50.611
-50.796
-51.015
-51.266
-51.55
-51.863
-52.206
-52.574
-52.967
-53.38
-53.811
-54.255
-54.708
-55.166
-55.624
-56.077
-56.518
-56.942
-57.344
-57.717
-58.057
-58.356
-58.611
-58.814
-58.961
-59.046
-59.066
-59.014
-58.886
-58.678
-58.388
-58.012
-57.547
-56.992
-56.345
-55.606
-54.775
-53.853
-52.84
-51.74
-50.554
-49.286
-47.941
-46.524
-45.041
-43.499
-41.907
-40.273
-38.61
-36.926
-35.235
-33.546
-31.872
-30.224
-28.614
-27.052
-25.546
-24.107
-22.745
-21.472
-20.299
-19.236
-18.292
-17.477
-16.797
-16.262
-15.875
-15.636
-15.546
-15.608
-15.824
-16.205
-16.755
-17.475
-18.361
-19.407
-20.604
-21.937
-23.382
-24.908
-26.482
-28.076
-29.668
-31.243
-32.782
-34.257
-35.635
-36.882
-37.969
-38.883
-39.608
-40.128
-40.45
-40.593
-40.599
-40.532
-40.432
-40.329
-40.258
-40.255
-40.368
-40.662
-41.176
-41.959
-43.084
-44.546
-46.295
-48.23
-50.096
-51.633
-52.642
-52.849
-51.998
-50.074
-47.18
-43.599
-39.946
-36.684
-34.046
-32.363
-31.798
-32.05
-32.585
-32.428
-30.05
-24.288
-14.326
0.81
21.723
48.402
80.484
116.761
155.22
194.175
232.004
266.584
296.011
318.662
333.044
338.629
335.593
323.837
303.543
275.682
241.509
202.751
161.534
119.433
77.884
38.903
4.454
-23.923
-45.196
-59.223
-66.499
-67.352
-62.308
-52.689
-40.258
-26.979
-14.51
-3.716
5.022
11.236
14.489
14.9
13.121
10.243
7.326
4.875
3.035
1.996
2.063
3.35
5.668
8.507
11.213
13.447
15.155
16.322
16.896
16.847
16.209
15.167
14.058
13.115
12.431
12.04
11.931
12.109
12.606
13.418
14.487
15.76
17.197
18.778
20.512
22.394
24.395
26.483
28.615
30.763
32.919
35.067
37.193
39.313
41.44
43.586
45.78
48.029
50.318
52.673
55.131
57.63
60.103
62.615
65.176
67.786
70.637
73.27
75.24
77.221
79.417
83.046
89.557
97.335
105.299
111.833
114.72
115.879
116.935
119.002
123.933
130.384
136.985
143.421
148.85
153.738
158.699
163.617
168.573
173.542
178.429
183.35
188.422
193.654
199.051
204.626
210.363
216.244
222.254
228.347
234.465
240.565
246.587
252.456
258.101
263.42
268.294
272.615
276.253
279.101
281.079
282.111
282.141
281.128
279.034
275.846
271.581
266.253
259.898
252.578
244.348
235.296
225.529
215.129
204.201
192.855
181.18
169.277
157.248
145.178
133.16
121.291
109.637
98.265
87.233
76.561
66.285
56.429
47.008
38.07
29.644
21.733
14.352
7.497
1.151
-4.701
-10.092
-15.088
-19.73
-24.053
-28.085
-31.829
-35.3
-38.521
-41.516
-44.327
-46.99
-49.524
-51.948
-54.282
-56.526
-58.68
-60.725
-62.612
-64.311
-65.806
-67.089
-68.167
-69.046
-69.723
-70.198
-70.473
-70.55
-70.436
-70.138
-69.66
-69.016
-68.225
-67.315
-66.329
-65.3
-64.252
-63.206
-62.174
-61.168
-60.201
-59.282
-58.411
-57.592
-56.828
-56.123
-55.483
-54.91
-54.404
-53.96
-53.572
-53.235
-52.945
-52.698
-52.491
-52.32
-52.183
-52.078
-52.008
-51.97
-51.963
-51.984
-52.031
-52.099
-52.186
-52.288
-52.402
-52.523
-52.649
-52.777
-52.906
-53.033
-53.158
-53.278
-53.392
-53.5
-53.601
-53.695
-53.783
-53.864
-53.94
-54.01
-54.078
-54.143
-54.207
-54.272
-54.339
-54.408
-54.482
-54.561
-54.646
-54.737
-54.836
-54.943
-55.06
-55.186
-55.322
-55.47
-55.629
-55.801
-55.985
-56.182
-56.391
-56.612
-56.844
-57.088
-57.341
-57.605
-57.876
-58.155
-58.439
-58.729
-59.021
-59.315
-59.608
-59.9
-60.188
-60.47
-60.746
-61.013
-61.27
-61.516
-61.749
-61.968
-62.173
-62.363
-62.536
-62.692
-62.83
-62.951
-63.055
-63.14
-63.209
-63.261
-63.297
-63.317
-63.324
-63.317
-63.298
-63.268
-63.23
-63.184
-63.132
-63.077
-63.021
-62.965
-62.912
-62.865
-62.825
-62.794
-62.776
-62.771
-62.782
-62.812
-62.861
-62.932
-63.026
-63.145
-63.291
-63.463
-63.662
-63.889
-64.143
-64.425
-64.732
-65.065
-65.421
-65.799
-66.197
-66.612
-67.043
-67.486
-67.937
-68.394
-68.851
-69.305
-69.752
-70.185
-70.6
-70.993
-71.358
-71.69
-71.985
-72.236
-72.44
-72.59
-72.682
-72.71
-72.671
-72.56
-72.373
-72.107
-71.76
-71.328
-70.811
-70.207
-69.517
-68.74
-67.878
-66.933
-65.906
-64.802
-63.623
-62.374
-61.063
-59.694
-58.276
-56.816
-55.325
-53.813
-52.291
-50.769
-49.26
-47.774
-46.323
-44.92
-43.574
-42.297
-41.098
-39.989
-38.981
-38.088
-37.317
-36.68
-36.184
-35.837
-35.646
-35.617
-35.75
-36.045
-36.504
-37.129
-37.929
-38.907
-40.061
-41.388
-42.88
-44.526
-46.311
-48.216
-50.208
-52.261
-54.345
-56.439
-58.528
-60.591
-62.602
-64.53
-66.338
-67.997
-69.49
-70.795
-71.896
-72.799
-73.514
-74.076
-74.536
-74.924
-75.27
-75.613
-75.981
-76.416
-76.967
-77.661
-78.55
-79.707
-81.146
-82.833
-84.67
-86.433
-87.891
-88.857
-89.082
-88.288
-86.367
-83.37
-79.528
-75.367
-71.403
-67.955
-65.382
-64.019
-63.827
-64.37
-64.898
-64.176
-60.821
-53.664
-41.554
-23.331
1.039
30.332
63.887
100.836
140.793
184.879
230.381
271.695
303.567
319.667
318.861
305.495
283.1
255.806
225.556
190.786
151.529
108.808
63.974
19.723
-21.601
-58.392
-89.262
-113.294
-130.139
-139.839
-142.419
-138.126
-127.917
-113.133
-95.493
-76.878
-58.759
-42.285
-28.558
-18.499
-12.456
-10.26
-11.224
-14.32
-18.591
-23.147
-27.206
-30.077
-31.337
-30.917
-29.059
-26.237
-22.968
-19.751
-16.929
-14.74
-13.322
-12.643
-12.564
-12.86
-13.274
-13.565
-13.595
-13.31
-12.688
-11.753
-10.538
-9.079
-7.431
-5.653
-3.777
-1.817
0.216
2.314
4.454
6.601
8.733
10.839
12.916
14.971
17.01
19.039
21.072
23.128
25.223
27.37
29.581
31.861
34.224
36.685
39.263
41.974
44.834
47.857
51.057
54.449
58.048
61.859
65.883
70.115
74.551
79.182
83.997
88.979
94.098
99.331
104.661
110.07
115.543
121.059
126.589
132.106
137.587
143.014
148.378
153.675
158.911
164.106
169.296
174.518
179.806
185.186
190.673
196.26
201.905
207.574
213.239
218.876
224.488
230.054
235.488
240.772
246.002
251.115
255.924
260.31
263.971
267.06
270.462
273.951
276.536
276.759
271.844
261.764
249.313
237.204
229.288
226.066
223.882
219.963
211.442
197.763
181.837
165.57
150.218
136.355
123.036
109.843
96.93
84.345
72.316
60.99
50.337
40.386
31.216
22.83
15.167
8.193
1.883
-3.806
-8.907
-13.493
-17.689
-21.571
-25.174
-28.536
-31.685
-34.672
-37.585
-40.477
-43.369
-46.273
-49.171
-52.057
-54.938
-57.794
-60.585
-63.264
-65.766
-68.053
-70.119
-71.954
-73.553
-74.903
-75.979
-76.774
-77.302
-77.573
-77.6
-77.396
-76.967
-76.333
-75.53
-74.597
-73.574
-72.494
-71.373
-70.231
-69.086
-67.953
-66.847
-65.777
-64.744
-63.75
-62.803
-61.91
-61.076
-60.305
-59.593
-58.936
-58.333
-57.78
-57.275
-56.817
-56.401
-56.027
-55.693
-55.4
-55.149
-54.938
-54.765
-54.627
-54.522
-54.446
-54.395
-54.367
-54.357
-54.361
-54.378
-54.403
-54.436
-54.473
-54.513
-54.554
-54.593
-54.631
-54.664
-54.691
-54.712
-54.726
-54.732
-54.731
-54.722
-54.706
-54.683
-54.654
-54.62
-54.58
-54.536
-54.488
-54.436
-54.383
-54.327
-54.272
-54.217
-54.163
-54.111
-54.063
-54.019
-53.98
-53.946
-53.918
-53.896
-53.88
-53.871
-53.868
-53.872
-53.883
-53.901
-53.926
-53.958
-53.997
-54.042
-54.095
-54.153
-54.218
-54.288
-54.364
-54.445
-54.531
-54.621
-54.716
-54.814
-54.916
-55.021
-55.13
-55.241
-55.355
-55.472
-55.592
-55.714
-55.838
-55.966
-56.097
-56.23
-56.366
-56.505
-56.647
-56.79
-56.934
-57.079
-57.222
-57.365
-57.504
-57.64
-57.77
-57.893
-58.008
-58.112
-58.205
-58.284
-58.346
-58.39
-58.412
-58.412
-58.386
-58.332
-58.248
-58.132
-57.981
-57.793
-57.565
-57.296
-56.984
-56.624
-56.217
-55.761
-55.253
-54.694
-54.083
-53.418
-52.701
-51.933
-51.116
-50.25
-49.338
-48.382
-47.386
-46.353
-45.287
-44.194
-43.078
-41.945
-40.804
-39.664
-38.531
-37.413
-36.32
-35.259
-34.24
-33.269
-32.352
-31.496
-30.706
-29.991
-29.36
-28.819
-28.374
-28.032
-27.798
-27.678
-27.676
-27.793
-28.028
-28.378
-28.845
-29.434
-30.151
-31
-31.977
-33.078
-34.295
-35.617
-37.034
-38.523
-40.053
-41.595
-43.124
-44.621
-46.073
-47.457
-48.743
-49.899
-50.893
-51.705
-52.323
-52.734
-52.936
-52.938
-52.763
-52.45
-52.044
-51.588
-51.126
-50.705
-50.375
-50.192
-50.204
-50.472
-51.077
-52.04
-53.317
-54.805
-56.294
-57.581
-58.522
-58.921
-58.523
-57.213
-55.043
-52.257
-49.346
-46.729
-44.571
-43.014
-42.269
-42.331
-42.843
-43.064
-41.79
-37.815
-30.401
-18.925
-2.569
19.168
46.277
78.236
113.632
150.678
188.001
224.07
256.79
284.199
304.495
316.095
318.543
311.951
296.027
270.908
237.604
197.359
152.481
106.232
60.187
15.37
-27.288
-68.477
-106.207
-136.356
-155.676
-160.047
-149.388
-128.642
-102.585
-76.545
-53.599
-32.949
-14.506
1.131
13.144
20.046
21.525
18.458
12.138
3.884
-5.028
-13.185
-19.594
-23.731
-25.376
-24.82
-22.604
-19.135
-14.99
-10.952
-7.478
-4.812
-3.074
-2.08
-1.601
-1.495
-1.531
-1.442
-1.102
-0.442
0.56
1.823
3.288
4.927
6.684
8.519
10.418
12.356
14.319
16.306
18.292
20.269
22.241
24.195
26.126
28.06
30.017
32.021
34.105
36.27
38.502
40.825
43.274
45.793
48.314
50.902
53.568
56.316
59.341
62.185
64.397
66.649
69.143
73.098
79.967
88.122
96.471
103.381
106.628
108.146
109.574
112.039
117.399
124.292
131.339
138.215
144.074
149.394
154.788
160.136
165.529
170.947
176.297
181.706
187.272
192.976
198.813
204.771
210.828
216.968
223.164
229.367
235.515
241.557
247.435
253.09
258.441
263.375
267.767
271.479
274.392
276.423
277.502
277.572
276.586
274.502
271.299
266.992
261.607
255.17
247.717
239.279
229.902
219.696
208.787
197.316
185.418
173.207
160.796
148.307
135.866
123.578
111.531
99.782
88.371
77.362
66.813
56.793
47.366
38.545
30.319
22.676
15.596
9.056
3.028
-2.549
-7.751
-12.628
-17.216
-21.532
-25.577
-29.38
-32.974
-36.397
-39.692
-42.878
-45.961
-48.955
-51.867
-54.694
-57.425
-60.024
-62.438
-64.637
-66.608
-68.346
-69.86
-71.15
-72.21
-73.042
-73.646
-74.028
-74.199
-74.163
-73.927
-73.505
-72.921
-72.206
-71.404
-70.547
-69.658
-68.757
-67.857
-66.972
-66.116
-65.295
-64.514
-63.775
-63.086
-62.45
-61.877
-61.368
-60.923
-60.54
-60.213
-59.937
-59.71
-59.527
-59.386
-59.284
-59.218
-59.187
-59.191
-59.229
-59.298
-59.395
-59.517
-59.658
-59.816
-59.986
-60.164
-60.346
-60.529
-60.709
-60.884
-61.052
-61.21
-61.357
-61.491
-61.612
-61.717
-61.807
-61.882
-61.94
-61.983
-62.01
-62.023
-62.023
-62.009
-61.984
-61.948
-61.902
-61.847
-61.785
-61.716
-61.642
-61.563
-61.481
-61.398
-61.315
-61.233
-61.153
-61.078
-61.007
-60.944
-60.887
-60.838
-60.798
-60.766
-60.742
-60.727
-60.72
-60.72
-60.727
-60.741
-60.759
-60.782
-60.809
-60.839
-60.872
-60.906
-60.942
-60.98
-61.018
-61.058
-61.098
-61.14
-61.182
-61.227
-61.273
-61.322
-61.374
-61.429
-61.488
-61.551
-61.619
-61.693
-61.773
-61.86
-61.955
-62.059
-62.173
-62.297
-62.434
-62.583
-62.747
-62.927
-63.122
-63.335
-63.565
-63.813
-64.079
-64.361
-64.66
-64.974
-65.303
-65.643
-65.994
-66.352
-66.714
-67.078
-67.44
-67.795
-68.14
-68.469
-68.78
-69.067
-69.326
-69.553
-69.743
-69.892
-69.995
-70.05
-70.05
-69.992
-69.872
-69.686
-69.431
-69.104
-68.701
-68.22
-67.661
-67.02
-66.299
-65.498
-64.617
-63.658
-62.622
-61.514
-60.337
-59.096
-57.797
-56.448
-55.054
-53.628
-52.177
-50.714
-49.249
-47.792
-46.354
-44.946
-43.58
-42.264
-41.006
-39.817
-38.706
-37.685
-36.763
-35.95
-35.255
-34.687
-34.255
-33.967
-33.826
-33.834
-33.992
-34.303
-34.771
-35.404
-36.205
-37.173
-38.303
-39.589
-41.022
-42.584
-44.249
-45.982
-47.748
-49.521
-51.279
-53.003
-54.67
-56.252
-57.717
-59.036
-60.192
-61.171
-61.956
-62.537
-62.92
-63.135
-63.233
-63.283
-63.333
-63.411
-63.55
-63.784
-64.158
-64.726
-65.533
-66.593
-67.919
-69.549
-71.459
-73.576
-75.749
-77.696
-79.148
-79.89
-79.671
-78.298
-75.759
-72.138
-67.694
-62.896
-58.058
-53.428
-49.383
-46.044
-43.155
-40.243
-36.46
-30.764
-22.424
-10.659
5.528
26.717
52.943
83.691
117.731
153.55
189.68
224.216
254.77
279.033
295.077
301.713
298.327
284.581
260.671
227.48
187.245
143.423
98.446
53.925
10.844
-31.246
-70.095
-101.449
-122.039
-128.104
-120.13
-103.249
-82.303
-62.719
-47.327
-35.089
-25.291
-17.351
-11.432
-8.817
-9.569
-12.762
-17.153
-21.361
-24.744
-27.09
-28.043
-27.424
-25.315
-22.016
-18.184
-14.5
-11.277
-8.65
-6.741
-5.565
-5.107
-5.298
-5.881
-6.531
-7.051
-7.333
-7.334
-7.073
-6.548
-5.738
-4.666
-3.379
-1.924
-0.333
1.381
3.224
5.196
7.274
9.431
11.634
13.849
16.061
18.265
20.455
22.63
24.788
26.933
29.075
31.234
33.422
35.65
37.927
40.259
42.662
45.154
47.751
50.468
53.318
56.314
59.471
62.807
66.334
70.055
73.97
78.073
82.358
86.815
91.427
96.169
101.017
105.953
110.962
116.038
121.168
126.33
131.499
136.646
141.758
146.829
151.855
156.834
161.773
166.692
171.628
176.635
181.746
186.975
192.312
197.737
203.232
208.788
214.393
220.023
225.637
231.184
236.617
241.885
246.917
251.614
255.839
259.445
262.313
264.356
265.513
265.744
265
263.229
260.394
256.477
251.475
245.399
238.248
230.027
220.78
210.59
199.593
187.938
175.753
163.152
150.238
137.103
123.865
110.645
97.557
84.711
72.211
60.153
48.65
37.811
27.713
18.395
9.854
2.072
-4.963
-11.266
-16.855
-21.757
-26.021
-29.708
-32.883
-35.625
-38.008
-40.102
-41.991
-43.757
-45.466
-47.163
-48.872
-50.602
-52.366
-54.17
-56.016
-57.901
-59.803
-61.698
-63.554
-65.326
-66.98
-68.487
-69.819
-70.95
-71.863
-72.548
-73.006
-73.253
-73.298
-73.156
-72.841
-72.37
-71.766
-71.057
-70.271
-69.442
-68.597
-67.758
-66.942
-66.166
-65.44
-64.773
-64.169
-63.624
-63.136
-62.706
-62.332
-62.014
-61.748
-61.529
-61.351
-61.209
-61.097
-61.011
-60.946
-60.898
-60.864
-60.841
-60.828
-60.824
-60.828
-60.835
-60.844
-60.851
-60.851
-60.843
-60.823
-60.788
-60.735
-60.663
-60.571
-60.457
-60.323
-60.167
-59.991
-59.793
-59.576
-59.341
-59.088
-58.819
-58.536
-58.24
-57.935
-57.621
-57.302
-56.978
-56.654
-56.329
-56.007
-55.689
-55.378
-55.074
-54.78
-54.498
-54.23
-53.977
-53.741
-53.524
-53.326
-53.15
-52.995
-52.864
-52.754
-52.667
-52.602
-52.558
-52.534
-52.529
-52.542
-52.572
-52.616
-52.674
-52.744
-52.823
-52.911
-53.005
-53.103
-53.204
-53.305
-53.406
-53.504
-53.598
-53.687
-53.77
-53.844
-53.91
-53.967
-54.012
-54.046
-54.067
-54.075
-54.071
-54.052
-54.021
-53.976
-53.919
-53.851
-53.772
-53.684
-53.589
-53.488
-53.383
-53.276
-53.168
-53.062
-52.959
-52.862
-52.773
-52.694
-52.627
-52.573
-52.535
-52.514
-52.511
-52.527
-52.564
-52.621
-52.7
-52.8
-52.922
-53.066
-53.231
-53.417
-53.623
-53.848
-54.091
-54.35
-54.622
-54.905
-55.197
-55.493
-55.791
-56.086
-56.375
-56.653
-56.915
-57.158
-57.377
-57.566
-57.722
-57.839
-57.913
-57.94
-57.916
-57.836
-57.698
-57.497
-57.232
-56.901
-56.5
-56.03
-55.488
-54.873
-54.187
-53.43
-52.602
-51.704
-50.74
-49.712
-48.623
-47.479
-46.285
-45.046
-43.77
-42.465
-41.141
-39.806
-38.472
-37.148
-35.844
-34.572
-33.341
-32.161
-31.041
-29.989
-29.016
-28.131
-27.345
-26.666
-26.104
-25.667
-25.361
-25.197
-25.177
-25.303
-25.576
-25.997
-26.57
-27.304
-28.203
-29.266
-30.488
-31.865
-33.385
-35.036
-36.794
-38.624
-40.494
-42.373
-44.24
-46.079
-47.87
-49.588
-51.203
-52.678
-53.991
-55.134
-56.093
-56.852
-57.416
-57.803
-58.062
-58.268
-58.475
-58.715
-59.018
-59.409
-59.932
-60.636
-61.573
-62.766
-64.238
-66.027
-68.125
-70.479
-72.956
-75.291
-77.186
-78.403
-78.683
-77.758
-75.57
-72.171
-67.772
-62.93
-58.106
-53.547
-49.625
-46.63
-44.396
-42.559
-40.38
-36.487
-29.764
-19.414
-4.437
16.005
42.248
74.187
111.051
150.684
190.402
228.506
263.289
293.824
320.665
341.577
352.74
351.017
332.364
297.366
251.432
199.533
147.392
98.224
51.771
8.92
-29.094
-60.71
-83.752
-97.569
-102.548
-99.869
-91.343
-78.31
-62.648
-45.37
-26.968
-10.025
3.801
12.327
13.276
9.025
2.05
-5.231
-9.753
-12.223
-13.569
-13.621
-12.99
-11.27
-8.156
-4.466
-0.858
2.286
4.675
6.246
7.057
7.101
6.447
5.388
4.271
3.312
2.627
2.253
2.154
2.341
2.84
3.629
4.651
5.862
7.225
8.727
10.38
12.18
14.103
16.119
18.191
20.288
22.393
24.503
26.611
28.717
30.821
32.928
35.049
37.203
39.404
41.661
43.984
46.382
48.869
51.464
54.184
57.043
60.054
63.23
66.582
70.126
73.869
77.811
81.952
86.285
90.8
95.485
100.323
105.288
110.36
115.518
120.747
126.035
131.363
136.711
142.064
147.397
152.694
157.953
163.168
168.339
173.482
178.606
183.734
188.901
194.123
199.405
204.745
210.12
215.511
220.897
226.243
231.516
236.673
241.651
246.388
250.821
254.864
258.439
261.457
263.802
265.386
266.141
266.004
264.943
262.928
259.927
255.933
250.953
245.008
238.143
230.403
221.832
212.491
202.446
191.78
180.612
169.048
157.182
145.116
132.939
120.749
108.662
96.773
85.15
73.853
62.925
52.415
42.384
32.891
23.979
15.674
7.976
0.879
-5.618
-11.531
-16.89
-21.744
-26.172
-30.234
-33.964
-37.39
-40.533
-43.421
-46.104
-48.63
-51.037
-53.349
-55.585
-57.756
-59.883
-61.969
-64.001
-65.945
-67.753
-69.391
-70.845
-72.112
-73.191
-74.08
-74.768
-75.249
-75.529
-75.615
-75.515
-75.238
-74.788
-74.179
-73.434
-72.59
-71.686
-70.753
-69.814
-68.885
-67.981
-67.114
-66.297
-65.536
-64.832
-64.185
-63.598
-63.074
-62.618
-62.23
-61.907
-61.642
-61.429
-61.263
-61.138
-61.05
-60.995
-60.968
-60.967
-60.989
-61.034
-61.101
-61.187
-61.288
-61.401
-61.522
-61.647
-61.773
-61.895
-62.01
-62.115
-62.208
-62.287
-62.35
-62.396
-62.424
-62.434
-62.425
-62.397
-62.35
-62.286
-62.205
-62.108
-61.996
-61.872
-61.738
-61.594
-61.444
-61.289
-61.131
-60.971
-60.812
-60.654
-60.5
-60.35
-60.205
-60.068
-59.94
-59.822
-59.714
-59.619
-59.536
-59.468
-59.413
-59.373
-59.346
-59.333
-59.334
-59.347
-59.372
-59.408
-59.454
-59.509
-59.572
-59.641
-59.716
-59.794
-59.874
-59.954
-60.034
-60.112
-60.186
-60.256
-60.321
-60.379
-60.43
-60.473
-60.508
-60.534
-60.551
-60.558
-60.555
-60.542
-60.519
-60.486
-60.444
-60.393
-60.334
-60.268
-60.195
-60.116
-60.032
-59.944
-59.854
-59.762
-59.67
-59.579
-59.49
-59.404
-59.323
-59.247
-59.179
-59.119
-59.067
-59.025
-58.994
-58.974
-58.965
-58.969
-58.984
-59.012
-59.053
-59.106
-59.17
-59.247
-59.334
-59.431
-59.537
-59.651
-59.771
-59.895
-60.023
-60.151
-60.278
-60.403
-60.521
-60.632
-60.732
-60.818
-60.889
-60.94
-60.969
-60.973
-60.948
-60.892
-60.801
-60.673
-60.506
-60.295
-60.039
-59.736
-59.383
-58.978
-58.519
-58.004
-57.433
-56.804
-56.118
-55.374
-54.572
-53.714
-52.801
-51.835
-50.818
-49.753
-48.643
-47.493
-46.306
-45.089
-43.845
-42.582
-41.305
-40.025
-38.75
-37.489
-36.25
-35.043
-33.877
-32.762
-31.707
-30.719
-29.804
-28.97
-28.225
-27.58
-27.04
-26.614
-26.307
-26.126
-26.076
-26.162
-26.386
-26.745
-27.238
-27.866
-28.632
-29.545
-30.605
-31.81
-33.155
-34.632
-36.231
-37.938
-39.732
-41.579
-43.45
-45.318
-47.164
-48.973
-50.722
-52.381
-53.913
-55.286
-56.476
-57.47
-58.249
-58.807
-59.149
-59.295
-59.288
-59.174
-58.995
-58.787
-58.59
-58.446
-58.412
-58.538
-58.891
-59.548
-60.537
-61.831
-63.347
-64.897
-66.271
-67.28
-67.682
-67.193
-65.655
-63.106
-59.786
-56.172
-52.768
-49.886
-47.799
-46.849
-47.133
-48.283
-49.522
-49.582
-47.009
-40.761
-29.946
-13.464
9.356
38.485
73.333
112.341
153.368
194.661
234.327
269.899
299.225
320.52
332.279
334.197
326.657
309.633
283.495
249.512
209.019
164.286
118.553
73.29
29.276
-12.865
-54.019
-92.145
-122.958
-142.937
-148.153
-139.548
-122.125
-100.037
-77.41
-54.672
-30.679
-7.531
11.248
20.842
18.423
6.561
-8.908
-22.057
-29.059
-29.718
-27.137
-23.705
-20.753
-19.043
-17.194
-14.713
-12.032
-8.975
-6.34
-4.693
-3.833
-3.791
-4.329
-4.972
-5.472
-5.705
-5.567
-5.074
-4.285
-3.196
-1.815
-0.197
1.61
3.571
5.654
7.853
10.168
12.577
15.045
17.532
20.006
22.457
24.882
27.284
29.67
32.04
34.404
36.777
39.171
41.597
44.062
46.576
49.147
51.792
54.529
57.376
60.352
63.47
66.739
70.169
73.769
77.545
81.506
85.658
89.996
94.518
99.216
104.082
109.103
114.261
119.528
124.877
130.283
135.721
141.177
146.638
152.086
157.5
162.859
168.145
173.36
178.507
183.583
188.588
193.522
198.394
203.234
208.062
212.884
217.693
222.462
227.161
231.765
236.245
240.565
244.676
248.507
251.985
255.056
257.665
259.755
261.253
262.058
262.087
261.284
259.608
257.04
253.56
249.139
243.77
237.47
230.273
222.235
213.411
203.837
193.561
182.641
171.164
159.25
147.007
134.526
121.898
109.215
96.588
84.147
71.995
60.205
48.841
37.956
27.615
17.895
8.851
0.52
-7.085
-13.978
-20.168
-25.659
-30.479
-34.673
-38.313
-41.498
-44.297
-46.762
-48.939
-50.875
-52.635
-54.285
-55.87
-57.421
-58.959
-60.494
-62.044
-63.625
-65.229
-66.835
-68.404
-69.882
-71.238
-72.456
-73.519
-74.415
-75.124
-75.63
-75.933
-76.045
-75.977
-75.739
-75.339
-74.785
-74.099
-73.309
-72.446
-71.547
-70.637
-69.737
-68.862
-68.029
-67.248
-66.531
-65.878
-65.285
-64.752
-64.276
-63.859
-63.501
-63.198
-62.944
-62.733
-62.558
-62.413
-62.294
-62.196
-62.114
-62.046
-61.987
-61.937
-61.895
-61.859
-61.827
-61.796
-61.762
-61.723
-61.677
-61.619
-61.548
-61.462
-61.358
-61.236
-61.097
-60.94
-60.765
-60.574
-60.367
-60.145
-59.91
-59.663
-59.407
-59.143
-58.874
-58.601
-58.327
-58.054
-57.785
-57.522
-57.266
-57.02
-56.785
-56.563
-56.355
-56.163
-55.989
-55.833
-55.698
-55.583
-55.491
-55.422
-55.376
-55.354
-55.355
-55.38
-55.428
-55.496
-55.586
-55.694
-55.821
-55.965
-56.124
-56.297
-56.482
-56.679
-56.885
-57.099
-57.32
-57.547
-57.777
-58.01
-58.245
-58.481
-58.718
-58.954
-59.19
-59.424
-59.657
-59.888
-60.116
-60.342
-60.565
-60.786
-61.004
-61.22
-61.434
-61.647
-61.858
-62.068
-62.278
-62.487
-62.695
-62.903
-63.109
-63.313
-63.514
-63.712
-63.905
-64.093
-64.274
-64.446
-64.608
-64.757
-64.89
-65.006
-65.101
-65.172
-65.216
-65.23
-65.212
-65.157
-65.063
-64.927
-64.747
-64.519
-64.24
-63.907
-63.519
-63.073
-62.567
-62
-61.371
-60.678
-59.923
-59.106
-58.228
-57.292
-56.3
-55.254
-54.158
-53.016
-51.833
-50.614
-49.365
-48.094
-46.807
-45.516
-44.229
-42.956
-41.707
-40.493
-39.324
-38.209
-37.158
-36.178
-35.277
-34.462
-33.742
-33.127
-32.623
-32.236
-31.972
-31.837
-31.836
-31.97
-32.24
-32.643
-33.177
-33.843
-34.643
-35.581
-36.659
-37.872
-39.216
-40.682
-42.26
-43.935
-45.688
-47.487
-49.308
-51.128
-52.925
-54.681
-56.37
-57.959
-59.42
-60.722
-61.836
-62.744
-63.437
-63.906
-64.161
-64.216
-64.082
-63.793
-63.389
-62.904
-62.382
-61.866
-61.396
-61.04
-60.9
-61.021
-61.383
-61.914
-62.451
-62.817
-62.864
-62.394
-61.138
-58.961
-55.993
-52.504
-48.906
-45.769
-43.531
-42.49
-43.159
-45.297
-47.502
-49.023
-49.251
-47.928
-46.474
-43.711
-35.789
-19.374
9.178
49.28
95.518
142.718
185.881
222.494
252.82
276.397
292.751
301.213
300.811
291.882
275.043
250.855
220.657
185.864
147.994
108.767
69.327
30.42
-6.847
-41.013
-70.689
-94.739
-112.746
-124.791
-130.843
-130.75
-124.658
-113.426
-98.504
-81.474
-63.459
-45.295
-27.876
-12.348
-0.002
8.512
13.311
14.86
13.593
9.928
4.36
-2.26
-8.641
-13.893
-17.69
-19.959
-20.796
-20.329
-18.663
-16.153
-13.48
-11.088
-9.13
-7.646
-6.514
-5.626
-4.965
-4.4
-3.698
-2.729
-1.452
0.124
1.901
3.818
5.862
7.989
10.152
12.318
14.453
16.55
18.629
20.7
22.767
24.839
26.918
29.016
31.157
33.354
35.621
37.97
40.411
42.954
45.612
48.396
51.316
54.384
57.611
61.008
64.591
68.371
72.35
76.528
80.901
85.46
90.195
95.085
100.107
105.24
110.462
115.758
121.116
126.516
131.939
137.366
142.775
148.153
153.497
158.804
164.073
169.319
174.556
179.807
185.109
190.479
195.923
201.44
207.015
212.639
218.291
223.933
229.519
234.996
240.295
245.347
250.078
254.388
258.185
261.373
263.849
265.54
266.379
266.305
265.269
263.226
260.151
256.057
250.975
244.948
238.029
230.279
221.776
212.62
202.907
192.723
182.151
171.26
160.13
148.857
137.544
126.299
115.206
104.32
93.679
83.315
73.261
63.54
54.156
45.106
36.394
28.043
20.098
12.602
5.566
-1.02
-7.193
-13.001
-18.476
-23.634
-28.49
-33.052
-37.331
-41.334
-45.051
-48.473
-51.605
-54.471
-57.12
-59.6
-61.928
-64.109
-66.128
-67.955
-69.576
-70.984
-72.166
-73.12
-73.849
-74.358
-74.67
-74.809
-74.788
-74.614
-74.278
-73.774
-73.11
-72.301
-71.371
-70.349
-69.26
-68.126
-66.975
-65.828
-64.701
-63.605
-62.546
-61.522
-60.538
-59.6
-58.715
-57.891
-57.132
-56.441
-55.818
-55.261
-54.77
-54.34
-53.968
-53.648
-53.377
-53.154
-52.976
-52.845
-52.758
-52.713
-52.71
-52.746
-52.817
-52.92
-53.052
-53.208
-53.385
-53.579
-53.788
-54.01
-54.241
-54.48
-54.725
-54.974
-55.225
-55.477
-55.727
-55.976
-56.22
-56.46
-56.695
-56.923
-57.144
-57.358
-57.564
-57.762
-57.951
-58.132
-58.304
-58.467
-58.62
-58.764
-58.899
-59.023
-59.139
-59.244
-59.341
-59.43
-59.51
-59.582
-59.645
-59.701
-59.749
-59.788
-59.818
-59.839
-59.852
-59.855
-59.848
-59.833
-59.808
-59.775
-59.733
-59.684
-59.626
-59.561
-59.49
-59.412
-59.33
-59.243
-59.154
-59.062
-58.969
-58.877
-58.786
-58.698
-58.614
-58.535
-58.461
-58.395
-58.337
-58.289
-58.251
-58.226
-58.215
-58.218
-58.238
-58.276
-58.333
-58.411
-58.51
-58.631
-58.775
-58.943
-59.135
-59.351
-59.591
-59.855
-60.143
-60.453
-60.785
-61.137
-61.507
-61.893
-62.293
-62.705
-63.125
-63.551
-63.98
-64.408
-64.832
-65.249
-65.655
-66.047
-66.42
-66.771
-67.094
-67.387
-67.643
-67.86
-68.031
-68.154
-68.223
-68.236
-68.187
-68.074
-67.893
-67.641
-67.315
-66.913
-66.434
-65.875
-65.236
-64.517
-63.718
-62.84
-61.886
-60.857
-59.757
-58.589
-57.357
-56.066
-54.72
-53.325
-51.888
-50.415
-48.913
-47.39
-45.854
-44.314
-42.782
-41.267
-39.78
-38.332
-36.934
-35.597
-34.331
-33.147
-32.053
-31.056
-30.165
-29.387
-28.732
-28.207
-27.82
-27.576
-27.48
-27.535
-27.745
-28.11
-28.626
-29.29
-30.098
-31.051
-32.153
-33.406
-34.806
-36.348
-38.024
-39.82
-41.721
-43.703
-45.734
-47.783
-49.821
-51.826
-53.782
-55.669
-57.459
-59.122
-60.621
-61.928
-63.023
-63.885
-64.502
-64.883
-65.044
-65.028
-64.892
-64.675
-64.414
-64.156
-63.939
-63.816
-63.851
-64.083
-64.574
-65.417
-66.623
-68.151
-69.889
-71.574
-72.952
-73.846
-73.99
-73.105
-71.151
-68.212
-64.6
-60.98
-57.83
-55.366
-53.912
-53.684
-54.427
-55.651
-56.383
-55.019
-50.364
-41.602
-27.668
-7.796
18.188
50.152
87.023
126.799
167.868
208.585
246.595
279.674
305.703
322.579
329.375
325.946
311.723
286.77
252.222
209.473
161.302
110.975
60.131
10.92
-35.02
-76.708
-110.752
-134.991
-147.764
-147.433
-136.696
-118.642
-96.526
-74.535
-53.742
-34.754
-18.71
-5.911
2.594
6.225
5.659
1.874
-3.806
-10.118
-16.009
-20.578
-23.295
-23.931
-22.569
-19.643
-15.679
-11.221
-6.907
-3.194
-0.287
1.715
2.879
3.394
3.453
3.305
3.237
3.416
3.906
4.727
5.837
7.199
8.793
10.568
12.469
14.465
16.535
18.672
20.878
23.133
25.407
27.668
29.894
32.073
34.205
36.289
38.329
40.329
42.303
44.265
46.231
48.208
50.208
52.239
54.318
56.46
58.681
61
63.436
66.007
68.736
71.637
74.717
77.977
81.417
85.031
88.812
92.745
96.805
100.974
105.234
109.574
113.991
118.474
123.004
127.558
132.109
136.644
141.164
145.666
150.154
154.641
159.15
163.725
168.428
173.298
178.355
183.596
189.001
194.555
200.252
206.08
212.017
218.017
224.021
229.974
235.817
241.469
246.817
251.715
255.991
259.51
262.169
263.899
264.647
264.358
262.966
260.425
256.723
251.862
245.864
238.742
230.507
221.209
210.95
199.876
188.163
175.962
163.394
150.568
137.592
124.588
111.692
99.029
86.688
74.75
63.295
52.411
42.203
32.738
24.033
16.069
8.806
2.21
-3.736
-9.051
-13.778
-17.975
-21.714
-25.075
-28.104
-30.848
-33.359
-35.697
-37.937
-40.138
-42.324
-44.501
-46.668
-48.824
-50.977
-53.131
-55.266
-57.352
-59.355
-61.231
-62.959
-64.523
-65.907
-67.093
-68.059
-68.791
-69.292
-69.576
-69.656
-69.543
-69.248
-68.784
-68.175
-67.451
-66.641
-65.781
-64.895
-64
-63.117
-62.261
-61.444
-60.679
-59.969
-59.313
-58.713
-58.169
-57.684
-57.259
-56.892
-56.578
-56.313
-56.091
-55.909
-55.762
-55.647
-55.56
-55.498
-55.46
-55.445
-55.453
-55.482
-55.529
-55.594
-55.671
-55.757
-55.851
-55.949
-56.047
-56.143
-56.235
-56.321
-56.399
-56.469
-56.529
-56.578
-56.615
-56.639
-56.649
-56.645
-56.628
-56.596
-56.551
-56.493
-56.422
-56.34
-56.247
-56.143
-56.031
-55.909
-55.779
-55.642
-55.498
-55.349
-55.195
-55.038
-54.878
-54.717
-54.557
-54.397
-54.24
-54.086
-53.937
-53.793
-53.654
-53.523
-53.399
-53.284
-53.178
-53.082
-52.998
-52.926
-52.867
-52.822
-52.79
-52.773
-52.772
-52.785
-52.814
-52.859
-52.919
-52.996
-53.087
-53.194
-53.315
-53.45
-53.598
-53.758
-53.929
-54.11
-54.299
-54.496
-54.698
-54.904
-55.114
-55.324
-55.534
-55.742
-55.946
-56.144
-56.334
-56.514
-56.683
-56.838
-56.977
-57.099
-57.202
-57.284
-57.344
-57.382
-57.395
-57.384
-57.348
-57.286
-57.199
-57.087
-56.951
-56.792
-56.611
-56.409
-56.188
-55.951
-55.699
-55.435
-55.162
-54.881
-54.596
-54.309
-54.025
-53.744
-53.472
-53.21
-52.962
-52.732
-52.521
-52.334
-52.172
-52.039
-51.937
-51.868
-51.834
-51.836
-51.876
-51.955
-52.073
-52.229
-52.424
-52.657
-52.926
-53.229
-53.564
-53.928
-54.319
-54.732
-55.164
-55.609
-56.065
-56.525
-56.984
-57.436
-57.875
-58.297
-58.695
-59.063
-59.395
-59.685
-59.928
-60.117
-60.249
-60.316
-60.315
-60.24
-60.088
-59.855
-59.539
-59.135
-58.644
-58.062
-57.39
-56.629
-55.779
-54.84
-53.816
-52.71
-51.525
-50.267
-48.941
-47.553
-46.112
-44.625
-43.104
-41.559
-39.999
-38.436
-36.881
-35.346
-33.841
-32.377
-30.962
-29.608
-28.324
-27.123
-26.014
-25.008
-24.115
-23.345
-22.706
-22.206
-21.854
-21.648
-21.594
-21.692
-21.948
-22.371
-22.966
-23.732
-24.666
-25.762
-27.012
-28.4
-29.906
-31.494
-33.134
-34.795
-36.454
-38.094
-39.693
-41.224
-42.655
-43.952
-45.092
-46.067
-46.863
-47.465
-47.878
-48.123
-48.244
-48.316
-48.388
-48.494
-48.665
-48.935
-49.351
-49.967
-50.831
-51.962
-53.38
-55.116
-57.156
-59.447
-61.855
-64.125
-65.993
-67.239
-67.631
-66.927
-65.061
-62.06
-58.095
-53.627
-49.012
-44.439
-40.218
-36.58
-33.359
-30.222
-26.516
-21.08
-13.064
-1.858
13.474
33.592
58.581
88.26
121.712
157.262
193.545
229.078
261.673
289.331
310.297
322.916
326.496
320.962
305.99
281.854
249.789
211.323
168.498
123.664
78.575
35.085
-4.446
-38.137
-64.71
-83.403
-94.298
-97.81
-94.22
-84.494
-70.347
-53.528
-35.826
-18.733
-3.233
9.623
18.793
23.924
25.263
23.368
19.135
13.368
6.762
0.318
-5.017
-8.744
-10.663
-10.88
-9.784
-7.688
-4.938
-2.1
0.38
2.279
3.488
4.099
4.327
4.305
4.199
4.233
4.533
5.155
6.127
7.393
8.885
10.571
12.405
14.339
16.359
18.444
20.579
22.758
24.957
27.157
29.348
31.518
33.666
35.795
37.906
40.01
42.121
44.254
46.418
48.622
50.87
53.173
55.544
57.997
60.549
63.213
66.002
68.933
72.025
75.293
78.751
82.398
86.234
90.257
94.459
98.832
103.358
108.012
112.771
117.618
122.539
127.526
132.566
137.635
142.711
147.772
152.804
157.805
162.775
167.715
172.639
177.573
182.554
187.636
192.853
198.213
203.715
209.337
215.062
220.884
226.776
232.701
238.61
244.444
250.139
255.639
260.857
265.674
269.955
273.546
276.328
278.217
279.142
279.053
277.898
275.629
272.228
267.714
262.112
255.451
247.759
239.056
229.408
218.938
207.787
196.116
184.061
171.734
159.253
146.74
134.325
122.124
110.219
98.659
87.492
76.785
66.61
57.053
48.156
39.909
32.288
25.261
18.804
12.895
7.491
2.526
-2.083
-6.393
-10.437
-14.226
-17.776
-21.122
-24.314
-27.407
-30.43
-33.385
-36.273
-39.095
-41.857
-44.553
-47.164
-49.641
-51.931
-54.003
-55.845
-57.455
-58.834
-59.972
-60.855
-61.476
-61.838
-61.953
-61.831
-61.479
-60.903
-60.119
-59.153
-58.044
-56.831
-55.546
-54.21
-52.84
-51.454
-50.067
-48.695
-47.349
-46.032
-44.75
-43.511
-42.322
-41.192
-40.126
-39.126
-38.189
-37.314
-36.5
-35.747
-35.055
-34.423
-33.852
-33.342
-32.894
-32.511
-32.194
-31.942
-31.754
-31.626
-31.557
-31.543
-31.581
-31.667
-31.798
-31.969
-32.177
-32.419
-32.692
-32.991
-33.315
-33.658
-34.018
-34.392
-34.777
-35.169
-35.567
-35.967
-36.369
-36.769
-37.166
-37.558
-37.943
-38.32
-38.686
-39.04
-39.381
-39.708
-40.018
-40.313
-40.591
-40.851
-41.095
-41.321
-41.531
-41.726
-41.905
-42.069
-42.219
-42.356
-42.481
-42.594
-42.697
-42.79
-42.874
-42.95
-43.02
-43.083
-43.14
-43.192
-43.24
-43.284
-43.325
-43.364
-43.401
-43.437
-43.472
-43.508
-43.544
-43.581
-43.62
-43.659
-43.701
-43.743
-43.787
-43.831
-43.876
-43.922
-43.967
-44.011
-44.053
-44.093
-44.13
-44.163
-44.191
-44.213
-44.229
-44.239
-44.24
-44.233
-44.217
-44.192
-44.157
-44.112
-44.057
-43.992
-43.916
-43.83
-43.732
-43.625
-43.507
-43.38
-43.243
-43.099
-42.946
-42.787
-42.623
-42.455
-42.284
-42.111
-41.939
-41.769
-41.604
-41.444
-41.293
-41.152
-41.023
-40.91
-40.812
-40.734
-40.677
-40.643
-40.633
-40.649
-40.693
-40.766
-40.868
-41.001
-41.165
-41.36
-41.586
-41.843
-42.131
-42.448
-42.793
-43.164
-43.561
-43.98
-44.419
-44.875
-45.345
-45.826
-46.314
-46.803
-47.29
-47.771
-48.238
-48.689
-49.118
-49.518
-49.885
-50.213
-50.496
-50.729
-50.908
-51.026
-51.08
-51.065
-50.977
-50.813
-50.571
-50.247
-49.841
-49.35
-48.775
-48.116
-47.374
-46.549
-45.644
-44.662
-43.606
-42.481
-41.292
-40.045
-38.747
-37.407
-36.035
-34.641
-33.235
-31.828
-30.432
-29.057
-27.716
-26.418
-25.174
-23.993
-22.886
-21.866
-20.943
-20.129
-19.432
-18.861
-18.425
-18.132
-17.986
-17.988
-18.139
-18.442
-18.9
-19.524
-20.32
-21.288
-22.426
-23.73
-25.187
-26.786
-28.504
-30.308
-32.166
-34.049
-35.934
-37.806
-39.643
-41.416
-43.093
-44.633
-46.007
-47.196
-48.178
-48.941
-49.493
-49.854
-50.068
-50.205
-50.305
-50.411
-50.573
-50.822
-51.204
-51.782
-52.588
-53.686
-55.167
-57.025
-59.21
-61.633
-64.046
-66.192
-67.88
-68.785
-68.572
-67.194
-64.737
-61.411
-57.774
-54.354
-51.416
-49.353
-48.62
-48.525
-48.123
-47.079
-43.959
-38.702
-31.803
-20.467
-2.764
23.06
58.936
101.744
147.675
193.766
236.269
273.892
305.572
329.533
344.712
349.911
344.631
328.882
303.044
268.587
227.329
181.365
133.123
84.547
37.571
-5.444
-42.518
-72.201
-93.544
-106.362
-110.927
-107.699
-97.809
-83.048
-65.435
-47.091
-29.777
-14.838
-3.398
3.874
6.903
6.134
2.519
-2.72
-8.52
-13.877
-17.909
-20.154
-20.397
-18.688
-15.448
-11.229
-6.586
-2.152
1.614
4.529
6.49
7.522
7.78
7.43
6.714
5.951
5.328
