Name
Date of Birth,"20 Jul 2000"
Recorded Date,2025-06-13 08:24:39 +0200
Classification,Sinus Rhythm
Symptoms,
Software Version,1.90
Device,"Watch7,10"
Sample Rate,512 hertz


Lead,Lead I
Unit,µV

304.868
389.226
446.872
471.241
469.114
451.617
432.768
420.241
413.822
410.769
406.386
398.705
389.023
379.356
371.985
367.401
364.403
361.421
356.978
350.373
341.473
330.083
316.025
299.372
280.521
260.228
239.201
217.821
196.302
174.801
153.498
132.57
112.045
91.79
71.696
51.754
32.014
12.588
-6.467
-25.168
-43.432
-61.098
-77.958
-93.764
-108.38
-121.746
-133.743
-144.233
-153.208
-160.873
-167.659
-174.107
-180.746
-188.177
-197.055
-208.061
-221.133
-235.188
-249.283
-263.131
-278.371
-297.728
-321.398
-346.332
-365.887
-373.577
-368.593
-355.519
-343.345
-339.701
-346.185
-361.704
-383.989
-414.676
-461.261
-529.977
-625.009
-745.708
-885.196
-1037.67
-1196.196
-1351.178
-1492.252
-1605.002
-1675.423
-1695.976
-1666.193
-1592.402
-1485.978
-1358.759
-1219.648
-1076.631
-935.416
-798.104
-666.643
-540.83
-418.388
-299.719
-186.051
-79.263
15.753
95.409
157.812
200.98
225.829
234.541
229.938
216.976
201.281
189.185
185.451
192.718
210.638
233.916
256.861
273.657
280.087
277.681
270.098
262.016
257.578
257.221
259.116
260.739
260.346
257.721
253.719
249.629
246.113
243.426
241.807
241.186
241.48
242.66
244.498
246.747
249.265
251.833
254.199
256.239
257.87
259.035
259.768
260.09
260
259.538
258.762
257.716
256.447
254.995
253.382
251.646
249.818
247.91
245.923
243.831
241.623
239.306
236.894
234.404
231.851
229.24
226.584
223.904
221.218
218.54
215.884
213.254
210.668
208.154
205.743
203.48
201.391
199.485
197.767
196.231
194.868
193.668
192.615
191.681
190.845
190.086
189.386
188.734
188.11
187.49
186.849
186.158
185.398
184.556
183.622
182.589
181.454
180.217
178.881
177.454
175.942
174.349
172.677
170.927
169.103
167.211
165.255
163.241
161.174
159.057
156.895
154.691
152.449
150.171
147.858
145.51
143.13
140.718
138.278
135.81
133.316
130.799
128.26
125.7
123.12
120.522
117.906
115.271
112.619
109.948
107.26
104.555
101.832
99.093
96.337
93.567
90.783
87.985
85.177
82.36
79.535
76.706
73.874
71.042
68.213
65.389
62.575
59.772
56.985
54.216
51.467
48.746
46.058
43.409
40.805
38.248
35.739
33.287
30.893
28.554
26.264
24.011
21.791
19.623
17.524
15.498
13.558
11.74
10.074
8.603
7.357
6.291
5.344
4.515
3.737
2.843
1.765
0.497
-0.99
-2.465
-4.125
-6.947
-11.211
-16.233
-19.878
-18.339
-9.557
4.209
17.227
22.262
14.416
-3.694
-23.86
-37.942
-39.929
-31.15
-18.912
-8.917
-5.25
-7.939
-12.922
-17.854
-21.546
-23.734
-25.731
-28.031
-30.461
-33.045
-35.619
-38.13
-40.742
-43.512
-46.423
-49.5
-52.754
-56.148
-59.636
-63.171
-66.701
-70.198
-73.651
-77.039
-80.324
-83.471
-86.445
-89.221
-91.781
-94.11
-96.195
-98.046
-99.692
-101.185
-102.581
-103.92
-105.236
-106.565
-107.95
-109.44
-111.09
-112.944
-115.054
-117.5
-120.312
-123.455
-126.811
-130.166
-133.263
-135.861
-137.683
-138.405
-137.822
-135.922
-132.94
-129.292
-125.4
-121.716
-118.61
-116.41
-115.42
-114.957
-113.833
-111.467
-106.655
-99.303
-89.672
-74.979
-53.265
-22.579
18.837
67.706
120.447
173.744
223.33
267.706
305.385
334.03
352.402
359.043
352.917
334.164
303.526
262.564
213.945
161.234
107.131
53.53
1.835
-47.882
-93.438
-130.93
-157.301
-169.161
-166.828
-154.702
-137.04
-118.532
-101.898
-86.329
-71.441
-58.065
-47.081
-41.055
-41.678
-46.84
-54.578
-62.04
-66.116
-67.882
-68.155
-67.652
-68.071
-68.192
-67.106
-64.99
-61.485
-57.652
-54.551
-52.262
-50.962
-50.536
-50.649
-51.203
-52.047
-52.79
-53.071
-52.772
-51.917
-50.543
-48.819
-46.402
-42.473
-37.444
-32.195
-28.225
-28.218
-31.728
-36.553
-40.386
-38.675
-31.145
-20.39
-7.884
1.714
7.336
11.225
12.82
14.118
15.406
13.818
10.76
7.849
6.628
10.943
20.264
31.142
41.197
47.206
48.752
48.606
48.394
49.405
52.092
55.354
58.693
62.236
66.047
70.238
74.856
79.815
84.882
90.414
96.853
103.67
110.67
116.892
120.722
122.748
124.087
126.908
134.409
147.214
163.695
180.401
193.251
200.002
201.551
201.322
202.458
207.152
215.33
224.688
233.68
241.347
247.469
252.95
258.198
263.215
268.051
272.557
276.683
280.569
284.291
287.874
291.375
294.822
298.199
301.488
304.659
307.681
310.53
313.182
315.577
317.638
319.315
320.567
321.363
321.675
321.432
320.557
318.995
316.701
313.648
309.817
305.172
299.666
293.294
286.08
278.086
269.41
260.124
250.289
239.977
229.26
218.249
207.069
195.824
184.608
173.528
162.694
152.249
142.359
133.139
124.665
116.979
110.083
103.994
98.737
94.313
90.709
87.891
85.805
84.409
83.669
83.521
83.882
84.635
85.632
86.765
87.959
89.153
90.315
91.407
92.387
93.233
93.943
94.514
94.954
95.26
95.423
95.457
95.392
95.277
95.179
95.143
95.195
95.355
95.631
96.028
96.552
97.194
97.933
98.754
99.641
100.586
101.584
102.621
103.679
104.731
105.75
106.714
107.61
108.427
109.157
109.796
110.342
110.799
111.177
111.485
111.725
111.903
112.021
112.081
112.092
112.057
111.984
111.877
111.74
111.578
111.395
111.195
110.98
110.752
110.511
110.258
109.996
109.726
109.451
109.173
108.894
108.617
108.345
108.078
107.821
107.572
107.335
107.11
106.898
106.7
106.517
106.349
106.196
106.06
105.941
105.839
105.754
105.687
105.638
105.608
105.596
105.604
105.632
105.679
105.746
105.835
105.945
106.077
106.233
106.411
106.613
106.839
107.09
107.365
107.664
107.988
108.336
108.708
109.105
109.525
109.969
110.435
110.924
111.433
111.963
112.512
113.078
113.661
114.259
114.869
115.492
116.125
116.766
117.414
118.066
118.721
119.376
120.029
120.678
121.32
121.953
122.575
123.182
123.774
124.348
124.901
125.431
125.938
126.417
126.869
127.292
127.683
128.042
128.368
128.66
128.919
129.143
129.334
129.491
129.615
129.707
129.768
129.799
129.8
129.774
129.722
129.646
129.547
129.427
129.29
129.136
128.968
128.789
128.6
128.404
128.203
127.999
127.794
127.59
127.39
127.195
127.008
126.83
126.662
126.506
126.362
126.233
126.117
126.015
125.928
125.854
125.793
125.744
125.707
125.679
125.659
125.645
125.636
125.629
125.62
125.609
125.592
125.566
125.529
125.478
125.41
125.323
125.214
125.081
124.921
124.731
124.509
124.254
123.962
123.633
123.264
122.855
122.404
121.911
121.375
120.798
120.178
119.518
118.819
118.081
117.308
116.502
115.665
114.801
113.913
113.006
112.083
111.15
110.211
109.271
108.336
107.41
106.499
105.608
104.743
103.907
103.107
102.348
101.634
100.969
100.359
99.806
99.316
98.89
98.532
98.245
98.029
97.886
97.816
97.82
97.896
98.044
98.259
98.541
98.884
99.286
99.74
100.24
100.781
101.354
101.952
102.566
103.184
103.797
104.393
104.962
105.49
105.968
106.383
106.724
106.982
107.148
107.211
107.163
106.992
106.69
106.248
105.66
104.92
104.022
102.961
101.736
100.35
98.804
97.1
95.237
93.209
91.013
88.655
86.14
83.478
80.68
77.758
74.734
71.636
68.496
65.342
62.2
59.085
56.022
53.041
50.181
47.486
44.992
42.72
40.687
38.91
37.395
36.142
35.13
34.32
33.669
33.135
32.675
32.247
31.794
31.265
30.577
29.618
28.34
26.753
24.944
23.096
21.374
19.901
18.881
18.57
19.131
20.609
22.753
25.038
27.051
28.497
29.138
28.816
27.407
25.001
22.321
20.598
21.06
24.927
33.138
46.458
65.844
91.88
124.294
162.115
203.849
247.617
291.654
333.947
371.799
402.69
424.566
435.878
435.861
424.217
400.883
366.613
323.248
273.079
218.715
162.834
107.896
56.502
11.207
-26.077
-54.332
-73.296
-83.315
-85.075
-79.667
-68.847
-54.808
-39.74
-25.429
-13.145
-3.762
2.052
4.028
2.471
-1.772
-7.554
-13.824
-19.73
-24.685
-28.227
-30.054
-30.158
-28.83
-26.592
-24.016
-21.65
-19.832
-18.752
-18.527
-19.138
-20.49
-22.41
-24.632
-26.861
-28.894
-30.623
-32
-33.037
-33.74
-34.107
-34.174
-33.995
-33.619
-33.082
-32.401
-31.581
-30.637
-29.602
-28.515
-27.417
-26.347
-25.324
-24.36
-23.462
-22.634
-21.878
-21.188
-20.55
-19.948
-19.371
-18.807
-18.248
-17.683
-17.099
-16.479
-15.807
-15.067
-14.246
-13.33
-12.309
-11.171
-9.904
-8.5
-6.95
-5.244
-3.376
-1.337
0.883
3.292
5.9
8.718
11.749
14.995
18.454
22.121
25.986
30.036
34.251
38.609
43.087
47.664
52.322
57.047
61.818
66.616
71.424
76.218
80.983
85.713
90.402
95.047
99.657
104.241
108.815
113.407
118.03
122.69
127.386
132.105
136.835
141.554
146.233
150.841
155.339
159.674
163.792
167.635
171.128
174.204
176.787
178.785
180.13
180.756
180.609
179.655
177.861
175.213
171.717
167.387
162.249
156.351
149.735
142.454
134.579
126.163
117.28
108.026
98.476
88.724
78.868
68.993
59.196
49.558
40.118
30.913
21.985
13.339
4.976
-3.087
-10.852
-18.298
-25.356
-31.981
-38.177
-43.891
-49.007
-53.563
-57.656
-61.264
-64.602
-67.57
-69.366
-70.13
-70.671
-72.111
-77.184
-86.729
-98.137
-108.14
-111.873
-106.39
-95.119
-83.288
-76.314
-78.538
-87.726
-98.712
-107.642
-111.137
-109.691
-106.51
-103.251
-101.109
-100.273
-99.584
-98.679
-97.643
-96.434
-95.248
-94.161
-93.046
-91.875
-90.682
-89.454
-88.188
-86.911
-85.641
-84.394
-83.2
-82.073
-81.006
-80.004
-79.074
-78.216
-77.43
-76.713
-76.057
-75.459
-74.92
-74.437
-74.008
-73.634
-73.312
-73.043
-72.827
-72.663
-72.549
-72.482
-72.459
-72.477
-72.531
-72.619
-72.735
-72.876
-73.039
-73.221
-73.418
-73.628
-73.847
-74.075
-74.308
-74.545
-74.784
-75.025
-75.267
-75.509
-75.751
-75.993
-76.236
-76.48
-76.726
-76.974
-77.224
-77.478
-77.735
-77.996
-78.262
-78.533
-78.811
-79.096
-79.39
-79.694
-80.009
-80.337
-80.681
-81.041
-81.418
-81.816
-82.234
-82.673
-83.136
-83.623
-84.134
-84.669
-85.228
-85.81
-86.416
-87.044
-87.691
-88.358
-89.042
-89.741
-90.453
-91.176
-91.908
-92.647
-93.391
-94.136
-94.882
-95.626
-96.365
-97.097
-97.819
-98.53
-99.226
-99.905
-100.564
-101.201
-101.814
-102.399
-102.954
-103.478
-103.967
-104.421
-104.838
-105.216
-105.555
-105.854
-106.114
-106.333
-106.514
-106.656
-106.761
-106.831
-106.866
-106.868
-106.84
-106.783
-106.698
-106.589
-106.456
-106.302
-106.129
-105.94
-105.735
-105.517
-105.289
-105.052
-104.808
-104.559
-104.308
-104.055
-103.804
-103.555
-103.311
-103.073
-102.842
-102.62
-102.407
-102.203
-102.01
-101.827
-101.654
-101.49
-101.334
-101.186
-101.045
-100.909
-100.778
-100.65
-100.525
-100.4
-100.275
-100.149
-100.02
-99.888
-99.753
-99.613
-99.468
-99.317
-99.161
-98.999
-98.831
-98.657
-98.478
-98.292
-98.102
-97.906
-97.706
-97.502
-97.295
-97.087
-96.877
-96.669
-96.463
-96.261
-96.065
-95.876
-95.697
-95.53
-95.377
-95.238
-95.117
-95.014
-94.932
-94.871
-94.832
-94.817
-94.826
-94.859
-94.916
-94.998
-95.102
-95.23
-95.379
-95.547
-95.735
-95.939
-96.158
-96.39
-96.632
-96.882
-97.137
-97.394
-97.65
-97.902
-98.146
-98.378
-98.595
-98.792
-98.966
-99.113
-99.227
-99.306
-99.345
-99.341
-99.29
-99.189
-99.034
-98.823
-98.554
-98.223
-97.83
-97.374
-96.853
-96.268
-95.618
-94.904
-94.127
-93.289
-92.392
-91.438
-90.43
-89.371
-88.265
-87.115
-85.927
-84.704
-83.453
-82.179
-80.889
-79.59
-78.29
-76.998
-75.724
-74.476
-73.264
-72.097
-70.986
-69.938
-68.961
-68.063
-67.249
-66.529
-65.908
-65.394
-64.994
-64.714
-64.558
-64.53
-64.635
-64.872
-65.241
-65.739
-66.365
-67.119
-68.008
-69.036
-70.204
-71.509
-72.947
-74.508
-76.182
-77.947
-79.776
-81.641
-83.512
-85.363
-87.176
-88.931
-90.602
-92.159
-93.562
-94.773
-95.768
-96.524
-97.028
-97.283
-97.3
-97.112
-96.773
-96.331
-95.836
-95.345
-94.911
-94.585
-94.428
-94.495
-94.861
-95.64
-96.884
-98.547
-100.51
-102.561
-104.472
-106.057
-107.07
-107.157
-106.107
-104.001
-101.155
-98.075
-95.267
-93.073
-91.758
-91.684
-93.045
-94.895
-95.891
-95.211
-91.357
-84.145
-73.817
-57.566
-34.027
-2.719
37.706
84.5
135.154
189.077
242.121
289.985
328.739
352.852
361.183
356.366
340.727
317.627
288.697
253.333
212.309
167.014
119.537
73.114
30.35
-6.805
-36.902
-59.573
-75.017
-83.774
-86.783
-85.235
-80.616
-74.593
-68.735
-64.056
-60.979
-59.582
-59.701
-61.006
-63.022
-65.107
-66.531
-66.902
-66.205
-64.588
-62.35
-59.78
-57.105
-54.615
-52.632
-51.319
-50.702
-50.724
-51.236
-52.111
-53.266
-54.589
-55.977
-57.343
-58.593
-59.653
-60.466
-60.985
-61.181
-61.039
-60.55
-59.716
-58.557
-57.103
-55.397
-53.479
-51.383
-49.139
-46.777
-44.331
-41.837
-39.334
-36.858
-34.433
-32.076
-29.799
-27.608
-25.505
-23.485
-21.537
-19.644
-17.794
-15.976
-14.18
-12.396
-10.613
-8.817
-6.997
-5.14
-3.232
-1.261
0.785
2.919
5.152
7.494
9.955
12.545
15.273
18.148
21.178
24.374
27.746
31.309
35.068
39.028
43.187
47.543
52.089
56.815
61.702
66.728
71.869
77.104
82.414
87.786
93.201
98.636
104.063
109.454
114.793
120.071
125.283
130.428
135.513
140.551
145.575
150.623
155.724
160.895
166.142
171.458
176.844
182.302
187.836
193.441
199.093
204.746
210.352
215.846
221.15
226.167
230.771
234.829
238.228
240.872
242.686
243.607
243.564
242.486
240.313
236.999
232.528
226.917
220.19
212.403
203.638
194.003
183.652
172.75
161.444
149.874
138.168
126.45
114.864
103.562
92.679
82.346
72.662
63.701
55.527
48.178
41.662
35.963
31.026
26.782
23.174
20.144
17.632
15.577
13.889
12.468
11.227
10.083
8.965
7.825
6.614
5.295
3.856
2.296
0.634
-1.104
-2.898
-4.733
-6.585
-8.429
-10.225
-11.923
-13.486
-14.884
-16.093
-17.1
-17.893
-18.465
-18.822
-18.977
-18.948
-18.755
-18.417
-17.945
-17.359
-16.68
-15.931
-15.142
-14.334
-13.523
-12.724
-11.948
-11.201
-10.493
-9.824
-9.191
-8.594
-8.03
-7.497
-6.998
-6.529
-6.089
-5.673
-5.278
-4.9
-4.538
-4.188
-3.85
-3.521
-3.201
-2.888
-2.585
-2.29
-2.003
-1.723
-1.448
-1.178
-0.911
-0.647
-0.383
-0.12
0.144
0.407
0.671
0.935
1.198
1.461
1.722
1.982
2.24
2.495
2.747
2.994
3.236
3.472
3.7
3.92
4.131
4.332
4.523
4.703
4.871
5.029
5.175
5.31
5.434
5.546
5.648
5.739
5.82
5.891
5.952
6.004
6.048
6.084
6.112
6.134
6.149
6.159
6.163
6.162
6.157
6.147
6.132
6.114
6.091
6.066
6.036
6.004
5.969
5.931
5.89
5.845
5.797
5.745
5.689
5.628
5.561
5.489
5.41
5.324
5.23
5.128
5.017
4.897
4.767
4.627
4.476
4.314
4.142
3.96
3.767
3.565
3.353
3.133
2.906
2.671
2.431
2.185
1.935
1.681
1.425
1.168
0.91
0.653
0.397
0.145
-0.103
-0.346
-0.582
-0.81
-1.029
-1.238
-1.436
-1.62
-1.79
-1.945
-2.083
-2.203
-2.304
-2.385
-2.445
-2.484
-2.5
-2.494
-2.466
-2.414
-2.34
-2.243
-2.124
-1.983
-1.821
-1.638
-1.435
-1.213
-0.972
-0.714
-0.44
-0.151
0.153
0.468
0.795
1.131
1.475
1.824
2.179
2.537
2.897
3.256
3.612
3.962
4.309
4.644
4.963
5.259
5.527
5.768
5.99
6.183
6.341
6.477
6.603
6.728
6.865
7.003
7.116
7.219
7.336
7.404
7.349
7.215
7.001
6.694
6.457
5.854
4.46
2.887
1.32
0.882
2.916
5.94
8.969
10.532
8.612
5
1.216
-1.697
-2.02
-0.976
0.194
1.214
1.328
0.98
0.737
0.493
0.321
0.184
-0.031
-0.25
-0.411
-0.536
-0.629
-0.684
-0.705
-0.697
-0.664
-0.619
-0.576
-0.53
-0.478
-0.424
-0.367
-0.309
-0.251
-0.195
-0.14
-0.09
-0.049
-0.019
-0.003
-0.003
-0.02
-0.056
-0.109
-0.177
-0.257
-0.346
-0.443
-0.543
-0.646
-0.746
-0.842
-0.932
-1.012
-1.08
-1.127
-1.143
-1.121
-1.057
-0.952
-0.809
-0.636
-0.44
-0.227
-0.009
0.208
0.42
0.634
0.865
1.128
1.43
1.775
2.154
2.561
2.999
3.472
3.985
4.554
5.19
5.907
6.735
7.689
8.765
9.949
11.199
12.463
13.706
14.899
16.02
17.056
17.981
18.766
19.392
19.826
20.036
19.991
19.633
18.921
17.84
16.384
14.585
12.498
10.159
7.599
4.855
1.95
-1.075
-4.168
-7.293
-10.405
-13.458
-16.405
-19.178
-21.705
-23.936
-25.829
-27.37
-28.578
-29.462
-30.03
-30.304
-30.307
-30.084
-29.7
-29.211
-28.668
-28.127
-27.657
-27.335
-27.23
-27.425
-28.017
-29.045
-30.5
-32.289
-34.222
-36.131
-37.889
-39.288
-40.068
-40.017
-38.99
-37.143
-34.923
-32.633
-30.402
-28.419
-26.898
-26.001
-25.88
-25.659
-23.362
-18.047
-9.374
2.206
14.863
29.693
49.949
78.05
116.801
165.015
217.288
269.119
315.612
353.565
383.054
403.648
414.971
416.714
407.602
387.047
355.618
315.275
269.14
220.188
170.428
120.174
69.037
18.028
-29.314
-67.58
-92.028
-100.426
-94.985
-80.566
-60.396
-37.441
-13.102
11.551
30.738
39.728
36.08
19.513
-2.671
-22.598
-35.547
-38.198
-33.635
-27.138
-21.323
-18.675
-18.812
-19.155
-19.032
-18.076
-16.36
-15.145
-14.871
-15.42
-16.778
-18.612
-20.602
-22.618
-24.527
-26.194
-27.579
-28.693
-29.51
-30.021
-30.237
-30.168
-29.843
-29.303
-28.569
-27.649
-26.561
-25.33
-23.99
-22.582
-21.146
-19.714
-18.31
-16.946
-15.636
-14.384
-13.195
-12.064
-10.982
-9.935
-8.911
-7.901
-6.895
-5.883
-4.852
-3.785
-2.667
-1.485
-0.225
1.123
2.575
4.144
5.842
7.681
9.667
11.81
14.115
16.594
19.252
22.093
25.123
28.345
31.765
35.395
39.236
43.284
47.532
51.964
56.567
61.329
66.231
71.25
76.366
81.565
86.839
92.192
97.615
103.095
108.61
114.126
119.622
125.086
130.505
135.87
141.173
146.401
151.554
156.644
161.665
166.594
171.388
175.981
180.32
184.371
188.105
191.504
194.544
197.188
199.408
201.179
202.474
203.267
203.518
203.167
202.184
200.569
198.345
195.573
192.298
188.546
184.347
179.727
174.715
169.351
163.666
157.677
151.417
144.922
138.246
131.463
124.622
117.753
110.867
103.953
97.012
90.058
83.102
76.154
69.228
62.334
55.496
48.749
42.114
35.611
29.245
23.013
16.92
10.983
5.222
-0.337
-5.671
-10.765
-15.603
-20.169
-24.45
-28.439
-32.137
-35.551
-38.687
-41.549
-44.139
-46.458
-48.511
-50.308
-51.856
-53.168
-54.255
-55.13
-55.806
-56.3
-56.628
-56.802
-56.835
-56.74
-56.529
-56.214
-55.809
-55.327
-54.779
-54.178
-53.536
-52.866
-52.177
-51.48
-50.785
-50.098
-49.427
-48.779
-48.159
-47.571
-47.019
-46.508
-46.038
-45.613
-45.233
-44.899
-44.611
-44.369
-44.171
-44.016
-43.903
-43.829
-43.791
-43.788
-43.816
-43.873
-43.955
-44.059
-44.181
-44.319
-44.47
-44.629
-44.795
-44.965
-45.135
-45.304
-45.471
-45.633
-45.79
-45.941
-46.086
-46.226
-46.359
-46.488
-46.614
-46.736
-46.857
-46.978
-47.101
-47.227
-47.359
-47.497
-47.644
-47.801
-47.97
-48.152
-48.35
-48.564
-48.796
-49.048
-49.321
-49.616
-49.935
-50.279
-50.648
-51.043
-51.464
-51.911
-52.383
-52.881
-53.403
-53.948
-54.514
-55.101
-55.705
-56.324
-56.957
-57.601
-58.253
-58.91
-59.569
-60.229
-60.886
-61.539
-62.185
-62.821
-63.446
-64.058
-64.655
-65.236
-65.797
-66.339
-66.859
-67.357
-67.83
-68.279
-68.702
-69.099
-69.47
-69.814
-70.131
-70.422
-70.688
-70.928
-71.145
-71.34
-71.513
-71.668
-71.806
-71.93
-72.041
-72.142
-72.235
-72.323
-72.408
-72.493
-72.578
-72.667
-72.761
-72.862
-72.971
-73.092
-73.224
-73.37
-73.531
-73.709
-73.903
-74.116
-74.349
-74.602
-74.876
-75.172
-75.491
-75.832
-76.196
-76.584
-76.993
-77.425
-77.879
-78.353
-78.846
-79.357
-79.885
-80.428
-80.984
-81.553
-82.132
-82.72
-83.315
-83.917
-84.522
-85.131
-85.74
-86.35
-86.958
-87.563
-88.165
-88.761
-89.352
-89.935
-90.509
-91.074
-91.628
-92.169
-92.697
-93.21
-93.708
-94.19
-94.654
-95.102
-95.532
-95.945
-96.341
-96.719
-97.082
-97.428
-97.758
-98.072
-98.372
-98.657
-98.928
-99.185
-99.43
-99.662
-99.883
-100.093
-100.292
-100.48
-100.659
-100.827
-100.986
-101.136
-101.277
-101.41
-101.534
-101.652
-101.762
-101.866
-101.964
-102.055
-102.14
-102.217
-102.285
-102.344
-102.39
-102.424
-102.441
-102.441
-102.422
-102.382
-102.32
-102.234
-102.124
-101.988
-101.825
-101.633
-101.409
-101.148
-100.847
-100.503
-100.112
-99.673
-99.182
-98.638
-98.039
-97.386
-96.678
-95.914
-95.09
-94.201
-93.24
-92.21
-91.115
-89.962
-88.763
-87.529
-86.27
-85.004
-83.742
-82.491
-81.253
-80.02
-78.782
-77.539
-76.294
-75.061
-73.853
-72.671
-71.511
-70.37
-69.232
-68.084
-66.913
-65.69
-64.397
-63.036
-61.621
-60.191
-58.795
-57.467
-56.227
-55.087
-54.054
-53.151
-52.403
-51.836
-51.477
-51.356
-51.507
-51.982
-52.81
-53.981
-55.466
-57.198
-59.108
-61.144
-63.25
-65.387
-67.542
-69.713
-71.888
-74.035
-76.084
-77.964
-79.646
-81.058
-82.021
-82.405
-82.197
-81.486
-80.502
-79.065
-76.422
-72.236
-67.079
-63.09
-63.384
-69.505
-80.045
-90.543
-95.844
-93.403
-84.718
-74.734
-68.116
-66.77
-69.621
-73.337
-75.487
-75.589
-74.203
-72.573
-71.357
-70.418
-69.622
-68.89
-67.857
-65.888
-61.911
-54.31
-42.496
-26.658
-7.449
13.43
36.06
61.783
92.061
129.627
174.932
225.612
278.015
325.636
361.937
383.07
387.25
376.251
354.463
325.23
290.754
251.815
207.499
158.133
105.594
52.333
1.758
-43.173
-80.627
-109.235
-128.097
-137.485
-138.143
-130.514
-116.178
-96.095
-71.332
-45.883
-22.851
-5.497
3.45
6.338
4.809
-0.11
-6.824
-17.638
-32.127
-46.536
-58.105
-62.168
-57.746
-48.949
-39.123
-32.119
-29.575
-29.304
-29.843
-30.202
-29.93
-29.963
-30.624
-31.553
-32.418
-32.834
-32.665
-32.032
-31.033
-29.681
-27.993
-26.024
-23.839
-21.472
-18.941
-16.239
-13.357
-10.333
-7.211
-4.031
-0.84
2.337
5.485
8.588
11.635
14.618
17.526
20.361
23.13
25.837
28.49
31.103
33.688
36.264
38.852
41.467
44.12
46.812
49.54
52.3
55.093
57.925
60.804
63.735
66.716
69.746
72.817
75.916
79.029
82.133
85.211
88.255
91.271
94.279
97.306
100.384
103.527
106.741
110.033
113.407
116.88
120.464
124.178
128.041
132.076
136.319
140.802
145.549
150.559
155.82
161.308
166.993
172.874
178.959
185.242
191.712
198.342
205.092
211.93
218.824
225.725
232.572
239.294
245.816
252.088
258.067
263.707
268.953
273.708
277.862
281.328
284.035
285.931
286.984
287.149
286.376
284.637
281.928
278.257
273.646
268.105
261.63
254.249
246.017
237.035
227.438
217.343
206.848
196.045
185.023
173.883
162.748
151.725
140.897
130.338
120.116
110.31
101.02
92.314
84.225
76.754
69.867
63.536
57.749
52.487
47.717
43.394
39.453
35.827
32.478
29.369
26.46
23.707
21.043
18.418
15.809
13.207
10.619
8.053
5.506
2.98
0.495
-1.923
-4.239
-6.412
-8.425
-10.268
-11.927
-13.391
-14.642
-15.668
-16.471
-17.063
-17.457
-17.668
-17.706
-17.584
-17.327
-16.965
-16.525
-16.043
-15.54
-15.035
-14.546
-14.089
-13.676
-13.321
-13.03
-12.803
-12.644
-12.557
-12.546
-12.615
-12.761
-12.982
-13.275
-13.636
-14.059
-14.543
-15.081
-15.671
-16.308
-16.989
-17.711
-18.47
-19.263
-20.085
-20.929
-21.789
-22.657
-23.529
-24.395
-25.25
-26.087
-26.9
-27.683
-28.432
-29.142
-29.809
-30.427
-30.995
-31.507
-31.961
-32.355
-32.687
-32.954
-33.158
-33.297
-33.371
-33.381
-33.328
-33.215
-33.041
-32.809
-32.523
-32.184
-31.795
-31.362
-30.887
-30.376
-29.833
-29.263
-28.672
-28.065
-27.448
-26.826
-26.203
-25.585
-24.976
-24.381
-23.803
-23.248
-22.717
-22.216
-21.747
-21.313
-20.915
-20.557
-20.239
-19.963
-19.73
-19.539
-19.392
-19.287
-19.225
-19.205
-19.225
-19.284
-19.381
-19.512
-19.676
-19.869
-20.088
-20.33
-20.59
-20.866
-21.153
-21.448
-21.748
-22.048
-22.345
-22.637
-22.92
-23.191
-23.448
-23.688
-23.91
-24.111
-24.291
-24.448
-24.582
-24.692
-24.779
-24.842
-24.883
-24.901
-24.898
-24.874
-24.83
-24.769
-24.691
-24.6
-24.496
-24.383
-24.263
-24.138
-24.012
-23.888
-23.767
-23.653
-23.548
-23.455
-23.375
-23.312
-23.266
-23.239
-23.233
-23.249
-23.288
-23.349
-23.433
-23.539
-23.667
-23.815
-23.983
-24.168
-24.371
-24.589
-24.819
-25.06
-25.309
-25.565
-25.827
-26.091
-26.353
-26.614
-26.876
-27.14
-27.407
-27.672
-27.925
-28.17
-28.413
-28.637
-28.827
-28.975
-29.065
-29.108
-29.129
-29.114
-29.04
-28.972
-28.987
-29.04
-29.139
-29.301
-29.365
-29.772
-30.945
-32.284
-33.608
-33.809
-31.56
-28.335
-25.117
-23.37
-25.102
-28.541
-32.183
-35.001
-35.291
-34.273
-33.181
-32.292
-32.357
-32.94
-33.479
-34.078
-34.667
-35.28
-36.029
-36.837
-37.641
-38.457
-39.285
-40.114
-40.941
-41.763
-42.578
-43.392
-44.21
-45.021
-45.815
-46.587
-47.332
-48.042
-48.713
-49.339
-49.912
-50.428
-50.882
-51.27
-51.588
-51.832
-51.997
-52.08
-52.079
-51.99
-51.812
-51.543
-51.182
-50.729
-50.184
-49.548
-48.824
-48.013
-47.12
-46.147
-45.1
-43.985
-42.808
-41.576
-40.296
-38.978
-37.632
-36.267
-34.895
-33.526
-32.172
-30.843
-29.553
-28.309
-27.123
-26.003
-24.959
-24.001
-23.14
-22.387
-21.748
-21.234
-20.851
-20.606
-20.505
-20.552
-20.745
-21.086
-21.575
-22.216
-23.016
-23.98
-25.106
-26.394
-27.836
-29.423
-31.144
-32.983
-34.911
-36.904
-38.935
-40.983
-43.032
-45.062
-47.048
-48.955
-50.74
-52.365
-53.801
-55.026
-56.026
-56.792
-57.324
-57.637
-57.762
-57.739
-57.612
-57.419
-57.197
-56.994
-56.848
-56.835
-57.067
-57.609
-58.472
-59.586
-60.771
-61.856
-62.723
-63.187
-63.01
-62.03
-60.172
-57.657
-55.022
-52.727
-51.108
-50.386
-50.656
-51.972
-54.238
-56.766
-58.322
-57.59
-53.313
-44.611
-30.793
-11.033
15.208
47.868
85.686
126.794
169.88
213.525
257.21
299.926
337.891
368.156
387.555
393.337
387.12
370.013
343.221
309.67
269.847
224.819
176.873
127.18
78.334
33.645
-4.799
-35.204
-57.08
-71.658
-79.216
-79.474
-72.396
-57.333
-36.678
-15.415
2.186
11.504
11.69
6.084
-2.135
-9.147
-13.247
-15.689
-17.287
-18.807
-20.178
-20.18
-18.46
-15.301
-11.296
-7.442
-4.222
-1.707
-0.033
0.807
0.875
0.231
-0.896
-2.204
-3.506
-4.685
-5.642
-6.355
-6.802
-6.954
-6.829
-6.454
-5.852
-5.05
-4.071
-2.929
-1.645
-0.247
1.243
2.788
4.353
5.904
7.407
8.839
10.187
11.443
12.602
13.665
14.637
15.53
16.359
17.14
17.884
18.603
19.31
20.021
20.754
21.525
22.352
23.249
24.23
25.312
26.508
27.831
29.296
30.911
32.684
34.627
36.751
39.067
41.589
44.327
47.284
50.463
53.864
57.482
61.309
65.33
69.521
73.865
78.342
82.934
87.628
92.402
97.239
102.124
107.034
111.957
116.889
121.826
126.769
131.729
136.718
141.751
146.857
152.047
157.326
162.697
168.143
173.654
179.211
184.782
190.335
195.828
201.198
206.375
211.28
215.814
219.893
223.432
226.334
228.527
229.951
230.559
230.331
229.247
227.291
224.46
220.762
216.219
210.884
204.828
198.136
190.914
183.25
175.226
166.943
158.479
149.896
141.248
132.559
123.864
115.214
106.669
98.28
90.084
82.094
74.302
66.701
59.27
52.002
44.897
37.941
31.139
24.506
18.078
11.906
6.024
0.434
-4.89
-9.966
-14.804
-19.398
-23.733
-27.806
-31.608
-35.135
-38.383
-41.342
-44.014
-46.419
-48.593
-50.581
-52.414
-54.096
-55.613
-56.953
-58.116
-59.107
-59.935
-60.601
-61.107
-61.464
-61.692
-61.813
-61.84
-61.779
-61.626
-61.375
-61.031
-60.606
-60.123
-59.6
-59.051
-58.488
-57.926
-57.379
-56.862
-56.378
-55.927
-55.506
-55.115
-54.757
-54.436
-54.154
-53.911
-53.705
-53.533
-53.394
-53.284
-53.2
-53.139
-53.094
-53.062
-53.041
-53.03
-53.027
-53.031
-53.04
-53.051
-53.061
-53.07
-53.074
-53.072
-53.059
-53.034
-52.996
-52.943
-52.873
-52.787
-52.683
-52.562
-52.423
-52.269
-52.1
-51.917
-51.722
-51.517
-51.303
-51.082
-50.856
-50.627
-50.397
-50.167
-49.939
-49.714
-49.494
-49.28
-49.072
-48.872
-48.681
-48.499
-48.326
-48.164
-48.012
-47.872
-47.743
-47.627
-47.522
-47.43
-47.351
-47.283
-47.227
-47.183
-47.149
-47.124
-47.108
-47.099
-47.096
-47.097
-47.102
-47.108
-47.114
-47.12
-47.123
-47.122
-47.117
-47.106
-47.088
-47.063
-47.029
-46.987
-46.936
-46.875
-46.804
-46.723
-46.632
-46.532
-46.421
-46.3
-46.17
-46.029
-45.88
-45.722
-45.555
-45.38
-45.198
-45.01
-44.817
-44.619
-44.419
-44.217
-44.015
-43.815
-43.618
-43.426
-43.24
-43.064
-42.898
-42.744
-42.605
-42.481
-42.375
-42.288
-42.222
-42.178
-42.158
-42.163
-42.193
-42.249
-42.334
-42.446
-42.588
-42.759
-42.96
-43.191
-43.452
-43.743
-44.065
-44.416
-44.797
-45.206
-45.642
-46.105
-46.593
-47.103
-47.635
-48.187
-48.755
-49.339
-49.934
-50.538
-51.149
-51.764
-52.379
-52.993
-53.601
-54.202
-54.793
-55.371
-55.934
-56.48
-57.006
-57.512
-57.994
-58.452
-58.885
-59.29
-59.667
-60.015
-60.334
-60.622
-60.879
-61.106
-61.303
-61.469
-61.606
-61.714
-61.795
-61.851
-61.882
-61.89
-61.879
-61.85
-61.805
-61.748
-61.68
-61.606
-61.527
-61.446
-61.367
-61.291
-61.22
-61.157
-61.105
-61.064
-61.037
-61.026
-61.03
-61.053
-61.095
-61.157
-61.24
-61.344
-61.471
-61.619
-61.79
-61.983
-62.197
-62.434
-62.69
-62.967
-63.263
-63.576
-63.905
-64.248
-64.603
-64.967
-65.339
-65.715
-66.093
-66.471
-66.844
-67.211
-67.569
-67.914
-68.245
-68.557
-68.849
-69.117
-69.359
-69.57
-69.749
-69.893
-69.998
-70.062
-70.082
-70.056
-69.981
-69.855
-69.674
-69.438
-69.142
-68.786
-68.368
-67.884
-67.335
-66.72
-66.036
-65.286
-64.467
-63.582
-62.631
-61.615
-60.536
-59.397
-58.2
-56.948
-55.646
-54.297
-52.906
-51.481
-50.026
-48.551
-47.063
-45.569
-44.079
-42.603
-41.148
-39.724
-38.339
-37.002
-35.724
-34.512
-33.378
-32.33
-31.379
-30.536
-29.81
-29.21
-28.745
-28.421
-28.242
-28.213
-28.337
-28.619
-29.065
-29.68
-30.466
-31.422
-32.546
-33.832
-35.271
-36.845
-38.528
-40.296
-42.122
-43.984
-45.864
-47.739
-49.586
-51.379
-53.084
-54.673
-56.123
-57.412
-58.521
-59.442
-60.175
-60.742
-61.19
-61.564
-61.901
-62.229
-62.567
-62.949
-63.426
-64.045
-64.855
-65.89
-67.184
-68.809
-70.781
-73.037
-75.448
-77.762
-79.69
-81.026
-81.527
-80.888
-78.984
-75.86
-71.703
-67.032
-62.348
-57.936
-54.142
-51.304
-49.395
-48.042
-46.523
-43.581
-37.856
-28.198
-13.428
7.597
35.084
68.139
106.105
147.997
193.124
241.992
291.894
337.602
374.136
395.652
400.713
392.617
374.124
348.611
317.9
281.176
239.088
193.172
145.222
98.158
54.573
16.403
-14.864
-38.597
-54.813
-63.964
-66.562
-63.303
-55.481
-44.814
-33.11
-21.837
-11.988
-4.073
1.503
4.32
4.413
2.36
-0.988
-4.797
-8.355
-11.341
-13.574
-14.693
-14.556
-13.326
-11.315
-8.994
-6.88
-5.2
-4.027
-3.508
-3.666
-4.447
-5.772
-7.404
-9.037
-10.491
-11.666
-12.5
-12.999
-13.161
-12.965
-12.445
-11.66
-10.656
-9.473
-8.132
-6.634
-4.992
-3.236
-1.403
0.465
2.328
4.165
5.96
7.705
9.393
11.021
12.592
14.115
15.608
17.083
18.547
20.007
21.471
22.951
24.46
26.015
27.628
29.311
31.073
32.924
34.877
36.94
39.12
41.425
43.861
46.436
49.158
52.036
55.075
58.279
61.657
65.213
68.956
72.888
77.005
81.301
85.77
90.399
95.173
100.074
105.071
110.143
115.267
120.424
125.598
130.769
135.91
140.998
146.01
150.929
155.748
160.462
165.07
169.582
174.018
178.404
182.777
187.156
191.549
195.96
200.385
204.822
209.274
213.732
218.181
222.6
226.955
231.199
235.281
239.12
242.613
245.657
248.14
249.974
251.094
251.431
250.929
249.535
247.201
243.899
239.616
234.336
228.062
220.826
212.674
203.699
194.027
183.786
173.113
162.129
150.947
139.692
128.491
117.464
106.724
96.368
86.482
77.165
68.503
60.552
53.345
46.877
41.112
36.014
31.538
27.64
24.269
21.362
18.844
16.636
14.677
12.911
11.282
9.724
8.178
6.6
4.965
3.269
1.523
-0.266
-2.087
-3.925
-5.756
-7.549
-9.264
-10.862
-12.316
-13.605
-14.707
-15.602
-16.271
-16.703
-16.901
-16.876
-16.64
-16.206
-15.588
-14.803
-13.872
-12.821
-11.677
-10.471
-9.223
-7.954
-6.682
-5.423
-4.19
-2.994
-1.843
-0.739
0.315
1.313
2.252
3.127
3.938
4.684
5.366
5.984
6.54
7.033
7.463
7.831
8.136
8.379
8.558
8.673
8.725
8.714
8.643
8.514
8.331
8.096
7.813
7.487
7.122
6.721
6.29
5.832
5.351
4.851
4.338
3.815
3.287
2.757
2.23
1.71
1.199
0.701
0.219
-0.245
-0.687
-1.107
-1.502
-1.871
-2.212
-2.523
-2.806
-3.057
-3.279
-3.47
-3.631
-3.762
-3.865
-3.942
-3.992
-4.019
-4.025
-4.011
-3.98
-3.935
-3.878
-3.812
-3.74
-3.666
-3.591
-3.521
-3.457
-3.403
-3.361
-3.335
-3.328
-3.341
-3.377
-3.437
-3.524
-3.638
-3.781
-3.954
-4.156
-4.39
-4.655
-4.95
-5.276
-5.633
-6.02
-6.435
-6.878
-7.348
-7.843
-8.362
-8.903
-9.465
-10.044
-10.64
-11.25
-11.871
-12.502
-13.138
-13.779
-14.42
-15.061
-15.697
-16.328
-16.952
-17.565
-18.168
-18.758
-19.335
-19.898
-20.446
-20.979
-21.497
-21.999
-22.486
-22.958
-23.416
-23.861
-24.293
-24.713
-25.121
-25.52
-25.91
-26.291
-26.666
-27.036
-27.402
-27.765
-28.128
-28.492
-28.858
-29.228
-29.605
-29.989
-30.382
-30.787
-31.203
-31.633
-32.077
-32.537
-33.012
-33.504
-34.012
-34.537
-35.079
-35.638
-36.212
-36.802
-37.407
-38.027
-38.66
-39.307
-39.966
-40.637
-41.319
-42.011
-42.713
-43.423
-44.141
-44.866
-45.597
-46.333
-47.073
-47.817
-48.562
-49.308
-50.055
-50.8
-51.544
-52.285
-53.023
-53.756
-54.486
-55.211
-55.931
-56.647
-57.358
-58.065
-58.768
-59.467
-60.164
-60.858
-61.55
-62.241
-62.931
-63.62
-64.31
-65
-65.691
-66.384
-67.079
-67.776
-68.476
-69.18
-69.886
-70.597
-71.312
-72.031
-72.755
-73.485
-74.219
-74.958
-75.701
-76.449
-77.2
-77.953
-78.707
-79.461
-80.214
-80.962
-81.705
-82.44
-83.165
-83.877
-84.573
-85.251
-85.908
-86.54
-87.145
-87.719
-88.26
-88.764
-89.228
-89.649
-90.023
-90.347
-90.618
-90.833
-90.987
-91.078
-91.103
-91.058
-90.942
-90.751
-90.484
-90.138
-89.714
-89.21
-88.625
-87.96
-87.215
-86.391
-85.49
-84.513
-83.464
-82.346
-81.162
-79.916
-78.613
-77.258
-75.857
-74.415
-72.938
-71.433
-69.907
-68.367
-66.82
-65.277
-63.746
-62.237
-60.761
-59.328
-57.95
-56.636
-55.397
-54.242
-53.179
-52.215
-51.359
-50.616
-49.993
-49.499
-49.139
-48.917
-48.838
-48.904
-49.118
-49.481
-49.988
-50.636
-51.42
-52.341
-53.4
-54.6
-55.936
-57.403
-58.996
-60.7
-62.503
-64.384
-66.311
-68.253
-70.18
-72.061
-73.877
-75.605
-77.215
-78.675
-79.944
-80.988
-81.787
-82.322
-82.576
-82.553
-82.266
-81.747
-81.052
-80.228
-79.321
-78.388
-77.475
-76.634
-75.918
-75.374
-75.071
-75.113
-75.536
-76.295
-77.299
-78.372
-79.335
-80.045
-80.268
-79.668
-78.057
-75.493
-72.184
-68.477
-64.757
-61.271
-58.29
-56.305
-55.049
-53.246
-49.854
-44.157
-36.911
-30.309
-24.472
-16.562
-1.444
26.182
67.597
119.15
173.885
225.075
268.847
303.96
331.172
350.95
362.472
364.62
356.246
336.917
307.524
269.92
226.272
178.88
130.006
81.772
36.484
-3.566
-36.681
-61.922
-78.987
-88.104
-89.773
-84.905
-75.085
-62.31
-48.591
-35.597
-24.517
-16.182
-11.253
-9.972
-12.011
-16.548
-22.459
-28.694
-34.415
-39.016
-42.029
-43.187
-42.513
-40.317
-37.123
-33.501
-29.984
-26.928
-24.557
-23.005
-22.264
-22.241
-22.778
-23.641
-24.577
-25.41
-26.021
-26.345
-26.382
-26.131
-25.594
-24.8
-23.787
-22.585
-21.224
-19.719
-18.075
-16.308
-14.438
-12.494
-10.514
-8.529
-6.572
-4.664
-2.819
-1.049
0.641
2.25
3.783
5.248
6.66
8.027
9.359
10.666
11.96
13.253
14.561
15.897
17.275
18.71
20.213
21.798
23.474
25.254
27.148
29.164
31.313
33.603
36.04
38.634
41.395
44.334
47.463
50.789
54.314
58.038
61.959
66.069
70.357
74.806
79.392
84.092
88.888
93.765
98.71
103.706
108.73
113.76
118.776
123.763
128.716
133.629
138.501
143.339
148.161
152.991
157.864
162.798
167.793
172.849
177.947
183.074
188.219
193.354
198.447
203.458
208.34
213.036
217.494
221.636
225.37
228.61
231.256
233.232
234.49
234.984
234.689
233.585
231.655
228.903
225.348
221.001
215.885
210.032
203.467
196.249
188.457
180.152
171.418
162.325
152.922
143.272
133.424
123.424
113.325
103.172
93.004
82.882
72.873
63.04
53.47
44.219
35.331
26.867
18.871
11.378
4.435
-1.933
-7.703
-12.852
-17.371
-21.261
-24.523
-27.189
-29.305
-30.925
-32.131
-32.992
-33.565
-33.926
-34.13
-34.226
-34.265
-34.281
-34.3
-34.352
-34.455
-34.619
-34.856
-35.161
-35.516
-35.901
-36.273
-36.599
-36.856
-37.019
-37.073
-37.011
-36.827
-36.524
-36.116
-35.613
-35.027
-34.374
-33.665
-32.918
-32.153
-31.394
-30.669
-30.004
-29.415
-28.918
-28.522
-28.234
-28.059
-27.995
-28.037
-28.179
-28.417
-28.744
-29.158
-29.653
-30.222
-30.858
-31.552
-32.297
-33.086
-33.913
-34.77
-35.651
-36.552
-37.465
-38.386
-39.311
-40.233
-41.146
-42.043
-42.917
-43.763
-44.574
-45.343
-46.065
-46.735
-47.348
-47.9
-48.389
-48.812
-49.166
-49.45
-49.663
-49.805
-49.876
-49.878
-49.811
-49.676
-49.476
-49.213
-48.89
-48.509
-48.074
-47.588
-47.055
-46.479
-45.865
-45.216
-44.539
-43.837
-43.117
-42.382
-41.639
-40.892
-40.147
-39.41
-38.686
-37.979
-37.296
-36.641
-36.017
-35.431
-34.884
-34.381
-33.925
-33.517
-33.161
-32.857
-32.607
-32.412
-32.272
-32.187
-32.158
-32.183
-32.261
-32.391
-32.572
-32.8
-33.075
-33.392
-33.751
-34.147
-34.579
-35.042
-35.534
-36.051
-36.589
-37.146
-37.717
-38.299
-38.887
-39.478
-40.068
-40.653
-41.229
-41.793
-42.342
-42.872
-43.381
-43.867
-44.325
-44.755
-45.154
-45.52
-45.851
-46.147
-46.407
-46.629
-46.813
-46.959
-47.066
-47.135
-47.166
-47.157
-47.111
-47.026
-46.903
-46.742
-46.544
-46.31
-46.041
-45.737
-45.399
-45.029
-44.628
-44.198
-43.739
-43.254
-42.744
-42.211
-41.656
-41.081
-40.489
-39.881
-39.26
-38.627
-37.985
-37.335
-36.68
-36.021
-35.361
-34.701
-34.043
-33.389
-32.741
-32.102
-31.474
-30.858
-30.258
-29.675
-29.113
-28.572
-28.056
-27.566
-27.104
-26.673
-26.274
-25.909
-25.581
-25.292
-25.042
-24.835
-24.671
-24.553
-24.479
-24.453
-24.473
-24.541
-24.656
-24.82
-25.03
-25.288
-25.593
-25.945
-26.344
-26.788
-27.276
-27.808
-28.382
-28.996
-29.649
-30.338
-31.063
-31.82
-32.608
-33.424
-34.267
-35.132
-36.016
-36.917
-37.828
-38.747
-39.667
-40.582
-41.489
-42.381
-43.254
-44.103
-44.923
-45.712
-46.466
-47.182
-47.856
-48.484
-49.061
-49.581
-50.038
-50.428
-50.743
-50.977
-51.125
-51.18
-51.142
-51.007
-50.77
-50.428
-49.97
-49.394
-48.698
-47.883
-46.954
-45.917
-44.777
-43.549
-42.255
-40.915
-39.548
-38.165
-36.766
-35.353
-33.929
-32.498
-31.066
-29.631
-28.175
-26.688
-25.165
-23.596
-21.975
-20.277
-18.46
-16.495
-14.359
-12.049
-9.587
-6.989
-4.275
-1.475
1.376
4.224
6.992
9.621
12.067
14.28
16.217
17.814
18.982
19.653
19.786
19.354
18.359
16.803
14.684
12.029
8.882
5.312
1.409
-2.754
-7.121
-11.625
-16.193
-20.737
-25.15
-29.351
-33.284
-36.897
-40.154
-43.012
-45.425
-47.374
-48.87
-49.935
-50.602
-50.901
-50.865
-50.552
-50.038
-49.396
-48.694
-47.986
-47.316
-46.73
-46.277
-46.013
-45.984
-46.246
-46.866
-47.834
-49.101
-50.568
-52.009
-53.161
-53.781
-53.534
-52.085
-49.395
-45.514
-40.597
-35.217
-29.941
-25.239
-21.829
-19.735
-17.866
-15.361
-11.661
-7.261
-4.053
-2.225
0.962
10.746
33.27
71.626
124.045
184.871
246.25
300.93
344.322
373.848
389.78
394.519
389.72
376.969
356.326
326.42
287.658
241.74
191.84
141.275
92.001
45.228
0.929
-39.155
-71.493
-93.701
-102.956
-98.96
-85.873
-66.846
-45.331
-25.503
-7.683
6.902
16.051
20.903
21.64
19.041
15.552
11.061
5.415
-0.844
-7.587
-13.561
-17.711
-19.915
-20.271
-19.303
-17.503
-15.197
-12.887
-10.988
-9.739
-9.266
-9.483
-10.2
-11.256
-12.436
-13.492
-14.276
-14.705
-14.755
-14.468
-13.883
-13.028
-11.96
-10.735
-9.392
-7.957
-6.442
-4.854
-3.219
-1.571
0.051
1.618
3.113
4.528
5.856
7.095
8.242
9.304
10.294
11.223
12.097
12.924
13.709
14.464
15.204
15.943
16.698
17.485
18.316
19.206
20.168
21.215
22.36
23.615
24.99
26.5
28.156
29.974
31.965
34.142
36.513
39.089
41.879
44.895
48.142
51.621
55.33
59.263
63.409
67.759
72.297
76.998
81.838
86.796
91.849
96.984
102.188
107.444
112.732
118.032
123.326
128.609
133.88
139.133
144.362
149.563
154.736
159.9
165.069
170.243
175.417
180.563
185.646
190.637
195.508
200.221
204.73
208.971
212.872
216.389
219.481
222.105
224.208
225.709
226.534
226.631
225.964
224.514
222.276
219.241
215.405
210.794
205.452
199.435
192.811
185.613
177.855
169.572
160.822
151.688
142.263
132.623
122.837
112.979
103.13
93.368
83.764
74.357
65.163
56.202
47.492
39.082
31.046
23.429
16.256
9.536
3.262
-2.571
-7.968
-12.963
-17.613
-21.966
-26.059
-29.906
-33.504
-36.861
-39.992
-42.928
-45.714
-48.384
-50.954
-53.442
-55.861
-58.216
-60.505
-62.708
-64.778
-66.685
-68.412
-69.951
-71.31
-72.493
-73.494
-74.314
-74.949
-75.401
-75.675
-75.774
-75.697
-75.456
-75.062
-74.539
-73.923
-73.238
-72.503
-71.733
-70.937
-70.124
-69.304
-68.481
-67.656
-66.831
-66.009
-65.192
-64.388
-63.598
-62.822
-62.059
-61.305
-60.558
-59.816
-59.078
-58.343
-57.612
-56.883
-56.158
-55.441
-54.732
-54.032
-53.343
-52.663
-51.993
-51.332
-50.681
-50.039
-49.406
-48.782
-48.168
-47.565
-46.974
-46.396
-45.832
-45.284
-44.753
-44.239
-43.745
-43.271
-42.819
-42.388
-41.98
-41.595
-41.234
-40.898
-40.586
-40.299
-40.038
-39.801
-39.589
-39.401
-39.236
-39.095
-38.977
-38.88
-38.806
-38.752
-38.719
-38.707
-38.713
-38.738
-38.78
-38.839
-38.912
-38.999
-39.099
-39.209
-39.328
-39.456
-39.591
-39.732
-39.879
-40.029
-40.183
-40.34
-40.498
-40.658
-40.819
-40.98
-41.141
-41.301
-41.46
-41.618
-41.774
-41.927
-42.077
-42.224
-42.366
-42.502
-42.632
-42.755
-42.869
-42.975
-43.07
-43.155
-43.229
-43.29
-43.339
-43.374
-43.394
-43.399
-43.388
-43.36
-43.314
-43.251
-43.168
-43.066
-42.944
-42.802
-42.64
-42.456
-42.25
-42.023
-41.773
-41.502
-41.209
-40.895
-40.562
-40.209
-39.838
-39.451
-39.049
-38.634
-38.208
-37.771
-37.326
-36.875
-36.42
-35.963
-35.505
-35.049
-34.598
-34.153
-33.718
-33.293
-32.881
-32.483
-32.1
-31.735
-31.388
-31.062
-30.756
-30.474
-30.217
-29.987
-29.784
-29.611
-29.467
-29.353
-29.27
-29.217
-29.194
-29.201
-29.238
-29.303
-29.398
-29.521
-29.671
-29.85
-30.056
-30.289
-30.549
-30.832
-31.138
-31.465
-31.812
-32.176
-32.557
-32.953
-33.365
-33.792
-34.237
-34.7
-35.182
-35.68
-36.193
-36.718
-37.254
-37.798
-38.345
-38.892
-39.439
-39.986
-40.54
-41.104
-41.674
-42.243
-42.8
-43.335
-43.841
-44.306
-44.714
-45.055
-45.323
-45.522
-45.666
-45.765
-45.817
-45.816
-45.744
-45.591
-45.359
-45.058
-44.701
-44.304
-43.881
-43.464
-43.099
-42.82
-42.642
-42.56
-42.537
-42.547
-42.58
-42.626
-42.689
-42.766
-42.832
-42.86
-42.82
-42.675
-42.381
-41.882
-41.086
-39.925
-38.359
-36.384
-34.038
-31.356
-28.365
-25.1
-21.595
-17.894
-14.065
-10.179
-6.305
-2.535
1.039
4.315
7.162
9.466
11.145
12.149
12.463
12.086
11.019
9.28
6.903
3.927
0.421
-3.538
-7.859
-12.432
-17.149
-21.904
-26.584
-31.076
-35.289
-39.141
-42.573
-45.548
-48.036
-50.02
-51.495
-52.463
-52.953
-53.027
-52.771
-52.285
-51.653
-50.928
-50.164
-49.432
-48.8
-48.331
-48.07
-48.029
-48.238
-48.765
-49.635
-50.804
-52.139
-53.382
-54.244
-54.477
-53.799
-51.882
-48.557
-43.855
-37.986
-31.421
-24.721
-18.394
-13.034
-9.261
-6.838
-4.682
-1.761
2.968
9.164
15.501
22.631
32.813
49.932
78.399
119.334
171.321
231.37
294.229
354.583
406.117
441.376
456.494
451.115
428.844
396.86
359.793
319.615
276.387
228.451
176.324
122.296
69.327
20.873
-20.755
-54.23
-78.791
-94.377
-101.095
-99.342
-90.399
-75.933
-57.847
-38.416
-19.427
-2.339
11.275
20.457
25.021
25.137
21.553
15.502
7.965
-0.018
-7.124
-12.544
-15.894
-16.983
-16.094
-13.766
-10.42
-6.641
-3.172
-0.421
1.406
2.211
2.149
1.424
0.202
-1.25
-2.619
-3.739
-4.525
-4.946
-5.062
-4.907
-4.495
-3.876
-3.101
-2.203
-1.21
-0.133
1.029
2.257
3.52
4.784
6.017
7.199
8.323
9.385
10.384
11.324
12.211
13.058
13.88
14.688
15.495
16.311
17.147
18.019
18.943
19.934
21.008
22.182
23.467
24.875
26.418
28.105
29.944
31.946
34.118
36.468
39.005
41.733
44.66
47.793
51.137
54.701
58.486
62.49
66.709
71.134
75.754
80.553
85.511
90.599
95.79
101.061
106.387
111.75
117.126
122.485
127.802
133.053
138.219
143.289
148.258
153.124
157.894
162.586
167.22
171.829
176.432
181.04
185.662
190.294
194.937
199.597
204.267
208.938
213.587
218.176
222.651
226.951
230.994
234.682
237.919
240.603
242.64
243.958
244.488
244.173
242.956
240.782
237.597
233.364
228.065
221.71
214.342
206.021
196.838
186.91
176.352
165.291
153.856
142.165
130.333
118.476
106.717
95.186
84.028
73.38
63.352
54.029
45.459
37.669
30.665
24.426
18.925
14.122
9.966
6.412
3.414
0.913
-1.159
-2.888
-4.389
-5.772
-7.121
-8.508
-9.979
-11.565
-13.293
-15.17
-17.192
-19.349
-21.624
-24.007
-26.488
-29.051
-31.669
-34.301
-36.889
-39.378
-41.734
-43.928
-45.944
-47.772
-49.404
-50.843
-52.102
-53.198
-54.143
-54.951
-55.627
-56.183
-56.635
-57.005
-57.32
-57.604
-57.871
-58.134
-58.402
-58.683
-58.983
-59.303
-59.639
-59.986
-60.343
-60.71
-61.09
-61.483
-61.888
-62.304
-62.73
-63.164
-63.608
-64.063
-64.527
-65.003
-65.492
-65.995
-66.517
-67.06
-67.626
-68.215
-68.827
-69.463
-70.124
-70.809
-71.517
-72.247
-72.999
-73.772
-74.565
-75.378
-76.208
-77.055
-77.916
-78.79
-79.674
-80.566
-81.463
-82.362
-83.261
-84.156
-85.043
-85.921
-86.784
-87.63
-88.456
-89.257
-90.031
-90.774
-91.484
-92.157
-92.79
-93.382
-93.929
-94.43
-94.884
-95.289
-95.644
-95.95
-96.204
-96.408
-96.562
-96.665
-96.721
-96.728
-96.69
-96.608
-96.484
-96.322
-96.123
-95.891
-95.629
-95.34
-95.028
-94.695
-94.346
-93.984
-93.612
-93.234
-92.853
-92.472
-92.095
-91.724
-91.362
-91.012
-90.675
-90.355
-90.052
-89.768
-89.504
-89.261
-89.039
-88.839
-88.659
-88.501
-88.364
-88.245
-88.145
-88.062
-87.993
-87.937
-87.893
-87.858
-87.83
-87.807
-87.787
-87.768
-87.748
-87.727
-87.701
-87.669
-87.63
-87.583
-87.527
-87.46
-87.381
-87.292
-87.19
-87.076
-86.951
-86.815
-86.668
-86.511
-86.346
-86.173
-85.994
-85.811
-85.625
-85.439
-85.253
-85.072
-84.896
-84.728
-84.57
-84.424
-84.292
-84.177
-84.079
-84.001
-83.943
-83.907
-83.894
-83.904
-83.938
-83.997
-84.08
-84.187
-84.319
-84.474
-84.651
-84.851
-85.071
-85.31
-85.567
-85.84
-86.126
-86.425
-86.733
-87.05
-87.371
-87.696
-88.021
-88.344
-88.663
-88.974
-89.275
-89.564
-89.837
-90.094
-90.331
-90.547
-90.739
-90.906
-91.046
-91.158
-91.239
-91.289
-91.306
-91.289
-91.237
-91.149
-91.024
-90.862
-90.663
-90.425
-90.148
-89.832
-89.476
-89.08
-88.643
-88.165
-87.646
-87.085
-86.482
-85.836
-85.147
-84.414
-83.638
-82.816
-81.949
-81.035
-80.075
-79.065
-78.007
-76.899
-75.74
-74.529
-73.266
-71.949
-70.58
-69.155
-67.677
-66.143
-64.554
-62.908
-61.208
-59.451
-57.639
-55.773
-53.853
-51.881
-49.858
-47.786
-45.668
-43.507
-41.305
-39.066
-36.795
-34.495
-32.173
-29.835
-27.487
-25.139
-22.797
-20.47
-18.168
-15.899
-13.672
-11.495
-9.376
-7.323
-5.344
-3.448
-1.644
0.059
1.652
3.125
4.47
5.68
6.749
7.671
8.444
9.064
9.527
9.825
9.95
9.897
9.663
9.246
8.651
7.886
6.964
5.907
4.737
3.478
2.153
0.779
-0.625
-2.04
-3.44
-4.795
-6.07
-7.242
-8.286
-9.185
-9.939
-10.554
-11.052
-11.483
-11.896
-12.326
-12.82
-13.412
-14.144
-15.079
-16.275
-17.782
-19.673
-22.029
-24.885
-28.215
-31.89
-35.666
-39.278
-42.48
-44.997
-46.535
-46.91
-46.122
-44.431
-42.368
-40.483
-39.169
-38.743
-39.486
-41.432
-44.274
-47.198
-48.839
-47.67
-42.344
-31.671
-14.52
9.886
41.837
80.902
125.714
174.342
224.607
274.095
320.03
359.65
390.407
410.202
417.791
412.577
394.545
364.488
324.158
275.931
222.62
167.244
112.68
61.794
17.25
-18.997
-45.935
-63.377
-71.838
-72.291
-66.102
-55.2
-41.849
-28.194
-15.921
-6.175
0.387
3.388
2.813
-0.849
-6.688
-13.592
-20.553
-26.781
-31.772
-35.194
-36.889
-36.944
-35.676
-33.562
-31.117
-28.837
-27.044
-25.919
-25.556
-25.923
-26.92
-28.407
-30.177
-31.984
-33.646
-35.042
-36.099
-36.818
-37.2
-37.24
-36.958
-36.389
-35.566
-34.522
-33.279
-31.846
-30.239
-28.482
-26.604
-24.645
-22.642
-20.626
-18.623
-16.647
-14.708
-12.815
-10.969
-9.169
-7.408
-5.673
-3.956
-2.251
-0.55
1.154
2.873
4.62
6.409
8.254
10.167
12.159
14.24
16.423
18.716
21.13
23.674
26.353
29.175
32.152
35.295
38.62
42.137
45.851
49.764
53.876
58.181
62.67
67.329
72.132
77.06
82.092
87.212
92.413
97.683
103.005
108.357
113.714
119.057
124.381
129.681
134.952
140.201
145.439
150.694
156.013
161.431
166.966
172.623
178.384
184.234
190.157
196.135
202.15
208.169
214.139
220.01
225.73
231.229
236.433
241.236
245.498
249.108
251.971
254.014
255.194
255.473
254.814
253.191
250.587
246.994
242.433
236.922
230.479
223.149
214.977
206.047
196.49
186.415
175.924
165.115
154.059
142.832
131.521
120.203
108.956
97.868
87
76.418
66.192
56.375
47.029
38.188
29.844
21.999
14.648
7.782
1.404
-4.489
-9.926
-14.931
-19.54
-23.808
-27.769
-31.458
-34.918
-38.184
-41.3
-44.305
-47.207
-50.015
-52.733
-55.36
-57.902
-60.363
-62.726
-64.97
-67.074
-68.997
-70.72
-72.228
-73.502
-74.532
-75.303
-75.805
-76.04
-76.022
-75.761
-75.272
-74.566
-73.656
-72.568
-71.327
-69.964
-68.513
-67
-65.447
-63.876
-62.307
-60.756
-59.24
-57.77
-56.35
-54.989
-53.693
-52.47
-51.328
-50.271
-49.3
-48.417
-47.622
-46.916
-46.301
-45.777
-45.345
-45.003
-44.754
-44.596
-44.53
-44.555
-44.668
-44.865
-45.141
-45.49
-45.908
-46.386
-46.92
-47.5
-48.121
-48.776
-49.457
-50.158
-50.871
-51.59
-52.308
-53.019
-53.717
-54.397
-55.053
-55.681
-56.276
-56.834
-57.352
-57.827
-58.255
-58.634
-58.962
-59.237
-59.459
-59.627
-59.741
-59.802
-59.81
-59.768
-59.677
-59.541
-59.362
-59.144
-58.891
-58.607
-58.297
-57.964
-57.613
-57.249
-56.876
-56.498
-56.119
-55.743
-55.373
-55.013
-54.666
-54.333
-54.018
-53.723
-53.449
-53.196
-52.967
-52.762
-52.58
-52.422
-52.287
-52.174
-52.081
-52.007
-51.949
-51.906
-51.873
-51.847
-51.826
-51.806
-51.782
-51.75
-51.706
-51.646
-51.565
-51.46
-51.327
-51.162
-50.961
-50.722
-50.441
-50.117
-49.748
-49.331
-48.866
-48.352
-47.788
-47.175
-46.512
-45.802
-45.045
-44.244
-43.399
-42.514
-41.592
-40.636
-39.649
-38.636
-37.601
-36.548
-35.483
-34.41
-33.335
-32.264
-31.201
-30.152
-29.123
-28.119
-27.145
-26.206
-25.306
-24.451
-23.643
-22.888
-22.188
-21.546
-20.965
-20.447
-19.994
-19.608
-19.289
-19.037
-18.853
-18.737
-18.688
-18.705
-18.786
-18.929
-19.133
-19.394
-19.711
-20.078
-20.493
-20.952
-21.451
-21.985
-22.55
-23.141
-23.754
-24.385
-25.029
-25.681
-26.338
-26.994
-27.647
-28.292
-28.926
-29.545
-30.146
-30.727
-31.284
-31.816
-32.321
-32.797
-33.243
-33.657
-34.039
-34.389
-34.707
-34.991
-35.244
-35.466
-35.658
-35.821
-35.958
-36.07
-36.16
-36.229
-36.281
-36.318
-36.341
-36.354
-36.359
-36.358
-36.354
-36.349
-36.345
-36.345
-36.348
-36.359
-36.376
-36.403
-36.438
-36.483
-36.537
-36.6
-36.672
-36.751
-36.838
-36.929
-37.025
-37.122
-37.218
-37.31
-37.396
-37.471
-37.531
-37.572
-37.59
-37.58
-37.536
-37.456
-37.332
-37.161
-36.938
-36.659
-36.317
-35.909
-35.43
-34.876
-34.244
-33.529
-32.729
-31.842
-30.864
-29.796
-28.635
-27.381
-26.033
-24.593
-23.061
-21.439
-19.727
-17.931
-16.052
-14.095
-12.065
-9.969
-7.813
-5.605
-3.355
-1.071
1.237
3.558
5.883
8.2
10.499
12.769
15.002
17.186
19.311
21.367
23.342
25.228
27.014
28.69
30.248
31.68
32.979
34.142
35.164
36.043
36.772
37.346
37.759
38.01
38.098
38.029
37.807
37.445
36.961
36.384
35.741
35.06
34.368
33.685
33.033
32.44
31.934
31.55
31.316
31.254
31.383
31.714
32.255
32.996
33.904
34.924
35.994
37.061
38.089
39.046
39.887
40.565
41.02
41.205
41.105
40.692
39.93
38.828
37.43
35.862
34.398
33.306
32.787
33.094
34.481
37.073
40.949
46.008
51.804
57.983
64.419
70.778
76.72
82.296
87.547
93.208
101.242
112.6
127.375
145.405
164.791
185.249
209.466
240.194
280.856
332.524
389.94
445.25
490.418
518.923
530.742
529.934
520.102
504.363
482.773
453.512
416.675
373.449
326.35
278.667
232.862
191.444
156.535
129.272
110.513
99.752
95.812
98.708
107.521
121.429
139.818
159.256
177.121
191.192
199.013
201.848
201.198
198.696
196.878
195.623
194.705
194.242
193.73
193.994
195.709
198.647
202.613
206.976
211.017
214.561
217.543
219.824
221.418
222.371
222.763
222.846
222.918
223.154
223.647
224.451
225.557
226.962
228.68
230.679
232.905
235.314
237.867
240.543
243.333
246.222
249.178
252.163
255.133
258.047
260.88
263.616
266.245
268.756
271.143
273.401
275.53
277.538
279.425
281.191
282.835
284.358
285.763
287.057
288.251
289.352
290.363
291.283
292.107
292.831
293.453
293.976
294.4
294.733
294.985
295.171
295.306
295.402
295.464
295.49
295.469
295.386
295.227
294.983
294.653
294.239
293.737
293.131
292.405
291.529
290.463
289.161
287.565
285.621
283.295
280.569
277.451
273.966
270.142
266.001
261.556
256.816
251.795
246.526
241.043
235.395
229.651
223.888
218.202
212.695
207.439
202.474
197.81
193.426
189.287
185.364
181.63
178.051
174.591
171.189
167.777
164.277
160.583
156.578
152.134
147.104
141.369
134.843
127.464
119.197
110.031
99.954
88.96
77.07
64.311
50.741
36.438
21.491
6.022
-9.831
-25.924
-42.091
-58.172
-74.026
-89.515
-104.504
-118.886
-132.551
-145.395
-157.348
-168.35
-178.367
-187.392
-195.432
-202.521
-208.711
-214.061
-218.638
-222.525
-225.803
-228.564
-230.913
-232.939
-234.727
-236.367
-237.922
-239.448
-240.993
-242.577
-244.213
-245.902
-247.636
-249.401
-251.188
-252.975
-254.734
-256.434
-258.027
-259.481
-260.769
-261.864
-262.75
-263.417
-263.858
-264.081
-264.1
-263.932
-263.594
-263.106
-262.485
-261.751
-260.927
-260.038
-259.113
-258.176
-257.242
-256.329
-255.447
-254.606
-253.813
-253.07
-252.374
-251.723
-251.116
-250.55
-250.024
-249.536
-249.08
-248.651
-248.246
-247.858
-247.484
-247.12
-246.762
-246.408
-246.054
-245.697
-245.335
-244.966
-244.587
-244.195
-243.785
-243.355
-242.901
-242.42
-241.91
-241.368
-240.792
-240.18
-239.531
-238.845
-238.119
-237.355
-236.551
-235.707
-234.825
-233.904
-232.946
-231.952
-230.924
-229.862
-228.769
-227.646
-226.495
-225.318
-224.117
-222.893
-221.65
-220.39
-219.114
-217.827
-216.529
-215.224
-213.915
-212.603
-211.291
-209.981
-208.676
-207.378
-206.089
-204.81
-203.544
-202.291
-201.053
-199.831
-198.626
-197.439
-196.27
-195.121
-193.99
-192.879
-191.788
-190.716
-189.665
-188.632
-187.62
-186.627
-185.652
-184.696
-183.758
-182.838
-181.933
-181.044
-180.17
-179.308
-178.459
-177.62
-176.791
-175.97
-175.154
-174.344
-173.536
-172.73
-171.924
-171.115
-170.303
-169.486
-168.662
-167.829
-166.987
-166.135
-165.27
-164.393
-163.501
-162.594
-161.671
-160.73
-159.772
-158.794
-157.798
-156.781
-155.745
-154.688
-153.611
-152.513
-151.396
-150.26
-149.105
-147.934
-146.746
-145.543
-144.328
-143.101
-141.866
-140.624
-139.378
-138.129
-136.882
-135.638
-134.4
-133.17
-131.952
-130.747
-129.557
-128.387
-127.237
-126.111
-125.01
-123.937
-122.894
-121.882
-120.904
-119.961
-119.055
-118.186
-117.356
-116.565
-115.813
-115.101
-114.428
-113.794
-113.197
-112.637
-112.111
-111.618
-111.156
-110.721
-110.312
-109.925
-109.557
-109.205
-108.865
-108.535
-108.21
-107.888
-107.565
-107.237
-106.902
-106.555
-106.193
-105.814
-105.414
-104.99
-104.54
-104.061
-103.551
-103.008
-102.43
-101.817
-101.167
-100.48
-99.755
-98.993
-98.194
-97.36
-96.491
-95.59
-94.658
-93.699
-92.714
-91.707
-90.681
-89.639
-88.585
-87.521
-86.453
-85.383
-84.314
-83.252
-82.199
-81.159
-80.135
-79.132
-78.153
-77.2
-76.278
-75.387
-74.532
-73.713
-72.933
-72.193
-71.494
-70.836
-70.22
-69.646
-69.112
-68.617
-68.159
-67.735
-67.344
-66.982
-66.644
-66.328
-66.028
-65.74
-65.46
-65.183
-64.904
-64.617
-64.319
-64.002
-63.662
-63.294
-62.892
-62.451
-61.965
-61.43
-60.84
-60.192
-59.481
-58.703
-57.855
-56.934
-55.938
-54.863
-53.71
-52.477
-51.164
-49.772
-48.304
-46.762
-45.149
-43.47
-41.73
-39.937
-38.096
-36.215
-34.303
-32.369
-30.421
-28.469
-26.523
-24.592
-22.685
-20.813
-18.987
-17.217
-15.514
-13.888
-12.351
-10.912
-9.583
-8.372
-7.287
-6.333
-5.516
-4.841
-4.313
-3.939
-3.724
-3.669
-3.774
-4.038
-4.453
-5.014
-5.704
-6.498
-7.376
-8.315
-9.298
-10.311
-11.339
-12.363
-13.364
-14.312
-15.186
-15.967
-16.633
-17.169
-17.567
-17.823
-17.957
-18.01
-18.019
-18.015
-18.017
-18.025
-18.056
-18.134
-18.292
-18.572
-19
-19.609
-20.463
-21.59
-22.961
-24.471
-25.879
-26.889
-27.245
-26.682
-24.927
-21.844
-17.443
-11.978
-6.002
-0.164
4.964
8.871
11.133
11.59
10.476
8.567
7.174
7.895
12.311
21.873
37.97
61.584
93.026
131.79
176.452
224.893
274.679
323.156
367.312
404.319
431.766
447.831
451.669
443.123
422.588
391.185
350.786
303.672
252.467
199.806
147.985
99.393
56.183
19.93
-8.225
-27.843
-39.124
-42.434
-38.51
-28.849
-15.149
0.846
17.226
32.613
45.906
55.834
61.707
63.565
61.713
56.876
50.108
42.169
33.904
26.478
20.588
16.524
14.414
13.978
14.772
16.49
18.665
20.659
22.124
22.892
22.892
22.285
21.255
19.936
18.557
17.372
16.511
16.043
15.984
16.271
16.869
17.754
18.874
20.184
21.649
23.242
24.95
26.764
28.66
30.602
32.556
34.492
36.394
38.253
40.06
41.813
43.51
45.154
46.756
48.321
49.855
51.364
52.852
54.329
55.806
57.296
58.812
60.365
61.966
63.624
65.352
67.159
69.056
71.051
73.155
75.377
77.729
80.223
82.868
85.669
88.632
91.764
95.073
98.569
102.255
106.133
110.198
114.448
118.875
123.47
128.215
133.08
138.04
143.072
148.161
153.298
158.47
163.661
168.856
174.04
179.206
184.354
189.476
194.56
199.597
204.582
209.526
214.455
219.384
224.311
229.214
234.062
238.824
243.467
247.949
252.218
256.203
259.84
263.075
265.868
268.174
269.944
271.11
271.596
271.346
270.334
268.557
266.027
262.761
258.785
254.138
248.88
243.085
236.817
230.119
223.031
215.6
207.883
199.951
191.88
183.724
175.518
167.277
159.009
150.717
142.403
134.063
125.69
117.281
108.852
100.446
92.105
83.861
75.738
67.751
59.917
52.265
44.835
37.672
30.829
24.364
18.327
12.763
7.7
3.148
-0.908
-4.508
-7.69
-10.484
-12.917
-15.008
-16.78
-18.262
-19.483
-20.475
-21.281
-21.952
-22.534
-23.067
-23.577
-24.072
-24.543
-24.971
-25.337
-25.629
-25.839
-25.968
-26.019
-25.995
-25.905
-25.757
-25.554
-25.291
-24.963
-24.568
-24.11
-23.601
-23.058
-22.502
-21.955
-21.434
-20.953
-20.522
-20.146
-19.826
-19.563
-19.35
-19.187
-19.073
-19.009
-18.996
-19.033
-19.119
-19.25
-19.422
-19.628
-19.864
-20.125
-20.406
-20.704
-21.016
-21.34
-21.677
-22.024
-22.38
-22.744
-23.112
-23.483
-23.854
-24.222
-24.584
-24.939
-25.284
-25.619
-25.942
-26.253
-26.551
-26.836
-27.107
-27.365
-27.609
-27.838
-28.053
-28.253
-28.438
-28.608
-28.762
-28.901
-29.022
-29.128
-29.216
-29.288
-29.342
-29.379
-29.398
-29.399
-29.381
-29.345
-29.29
-29.217
-29.124
-29.014
-28.885
-28.739
-28.576
-28.396
-28.2
-27.987
-27.759
-27.515
-27.255
-26.981
-26.692
-26.39
-26.076
-25.75
-25.414
-25.069
-24.716
-24.358
-23.996
-23.631
-23.264
-22.899
-22.535
-22.175
-21.821
-21.474
-21.136
-20.808
-20.492
-20.189
-19.902
-19.63
-19.376
-19.14
-18.923
-18.728
-18.554
-18.404
-18.277
-18.177
-18.102
-18.055
-18.036
-18.045
-18.083
-18.151
-18.247
-18.373
-18.527
-18.71
-18.92
-19.158
-19.423
-19.715
-20.031
-20.372
-20.736
-21.122
-21.53
-21.958
-22.405
-22.87
-23.351
-23.848
-24.359
-24.884
-25.419
-25.964
-26.517
-27.076
-27.639
-28.203
-28.766
-29.326
-29.882
-30.429
-30.968
-31.494
-32.007
-32.505
-32.985
-33.447
-33.887
-34.305
-34.699
-35.068
-35.41
-35.726
-36.013
-36.271
-36.5
-36.699
-36.867
-37.004
-37.11
-37.185
-37.229
-37.242
-37.226
-37.182
-37.11
-37.013
-36.894
-36.753
-36.595
-36.42
-36.233
-36.037
-35.834
-35.628
-35.422
-35.22
-35.024
-34.839
-34.668
-34.513
-34.378
-34.265
-34.177
-34.117
-34.086
-34.086
-34.119
-34.188
-34.292
-34.434
-34.615
-34.834
-35.092
-35.389
-35.724
-36.096
-36.502
-36.941
-37.41
-37.907
-38.428
-38.969
-39.526
-40.096
-40.672
-41.251
-41.826
-42.392
-42.943
-43.473
-43.978
-44.451
-44.888
-45.283
-45.632
-45.93
-46.173
-46.358
-46.479
-46.534
-46.52
-46.434
-46.275
-46.039
-45.728
-45.339
-44.874
-44.333
-43.719
-43.033
-42.277
-41.456
-40.572
-39.632
-38.641
-37.604
-36.529
-35.425
-34.301
-33.167
-32.033
-30.911
-29.811
-28.745
-27.722
-26.753
-25.847
-25.012
-24.257
-23.589
-23.019
-22.555
-22.206
-21.979
-21.881
-21.918
-22.094
-22.415
-22.877
-23.481
-24.226
-25.115
-26.152
-27.343
-28.687
-30.182
-31.824
-33.601
-35.499
-37.498
-39.564
-41.669
-43.779
-45.868
-47.916
-49.901
-51.797
-53.575
-55.2
-56.635
-57.86
-58.854
-59.603
-60.11
-60.39
-60.476
-60.428
-60.297
-60.133
-59.992
-59.919
-59.971
-60.209
-60.68
-61.451
-62.606
-64.182
-66.161
-68.453
-70.845
-73.096
-74.985
-76.228
-76.526
-75.688
-73.664
-70.656
-67.144
-63.636
-60.554
-58.256
-57.032
-56.962
-57.79
-58.758
-58.627
-55.967
-49.436
-37.903
-20.318
4.068
35.427
73.239
116.208
162.434
209.837
256.278
299.3
336.427
365.5
384.772
393.274
390.647
376.721
351.743
316.646
273.423
224.957
173.932
122.263
70.566
18.942
-31.111
-76.156
-111.275
-132.289
-137.329
-127.843
-108.415
-82.972
-55.713
-30.817
-10.041
3.642
9.16
8.979
4.814
-0.477
-5.041
-9.921
-15.406
-21.37
-27.297
-31.69
-33.829
-33.843
-32.184
-29.598
-26.704
-24.016
-21.955
-20.737
-20.455
-21.04
-22.292
-24.012
-25.953
-27.818
-29.423
-30.678
-31.54
-32.05
-32.24
-32.121
-31.733
-31.134
-30.356
-29.428
-28.365
-27.165
-25.848
-24.446
-22.996
-21.539
-20.099
-18.687
-17.313
-15.98
-14.69
-13.445
-12.237
-11.053
-9.884
-8.723
-7.562
-6.394
-5.207
-3.986
-2.714
-1.375
0.044
1.554
3.165
4.885
6.723
8.686
10.781
13.011
15.385
17.912
20.599
23.454
26.484
29.692
33.081
36.655
40.414
44.356
48.477
52.776
57.25
61.899
66.718
71.696
76.819
82.068
87.418
92.845
98.325
103.828
109.327
114.803
120.241
125.634
130.978
136.259
141.456
146.542
151.49
156.282
160.905
165.347
169.604
173.677
177.566
181.287
184.841
188.209
191.364
194.258
196.838
199.068
200.924
202.393
203.47
204.15
204.423
204.287
203.727
202.715
201.223
199.2
196.615
193.468
189.77
185.548
180.847
175.697
170.118
164.133
157.745
150.947
143.739
136.124
128.116
119.758
111.111
102.249
93.247
84.163
75.053
65.975
56.982
48.122
39.448
31.011
22.871
15.118
7.828
1.065
-5.116
-10.696
-15.671
-20.05
-23.848
-27.096
-29.83
-32.102
-33.976
-35.495
-36.704
-37.645
-38.367
-38.941
-39.431
-39.889
-40.354
-40.854
-41.404
-42.021
-42.717
-43.48
-44.294
-45.131
-45.952
-46.738
-47.475
-48.151
-48.753
-49.265
-49.669
-49.962
-50.147
-50.228
-50.21
-50.094
-49.884
-49.595
-49.243
-48.851
-48.441
-48.03
-47.627
-47.241
-46.878
-46.544
-46.242
-45.97
-45.721
-45.491
-45.276
-45.075
-44.887
-44.705
-44.525
-44.341
-44.148
-43.94
-43.714
-43.467
-43.196
-42.9
-42.577
-42.228
-41.855
-41.459
-41.04
-40.599
-40.137
-39.654
-39.152
-38.633
-38.097
-37.546
-36.983
-36.409
-35.829
-35.243
-34.656
-34.07
-33.488
-32.913
-32.346
-31.791
-31.25
-30.723
-30.215
-29.726
-29.258
-28.813
-28.391
-27.994
-27.624
-27.279
-26.962
-26.671
-26.408
-26.171
-25.96
-25.775
-25.616
-25.481
-25.369
-25.279
-25.21
-25.161
-25.13
-25.115
-25.115
-25.129
-25.154
-25.19
-25.234
-25.287
-25.346
-25.41
-25.48
-25.554
-25.632
-25.713
-25.797
-25.883
-25.972
-26.064
-26.158
-26.254
-26.353
-26.455
-26.559
-26.666
-26.776
-26.889
-27.005
-27.125
-27.248
-27.376
-27.507
-27.643
-27.783
-27.929
-28.079
-28.235
-28.396
-28.563
-28.734
-28.911
-29.092
-29.277
-29.466
-29.658
-29.853
-30.049
-30.245
-30.441
-30.637
-30.83
-31.02
-31.206
-31.387
-31.562
-31.731
-31.893
-32.046
-32.192
-32.329
-32.458
-32.577
-32.688
-32.789
-32.881
-32.965
-33.039
-33.105
-33.162
-33.212
-33.254
-33.289
-33.317
-33.341
-33.359
-33.374
-33.385
-33.394
-33.402
-33.41
-33.419
-33.431
-33.446
-33.466
-33.492
-33.525
-33.566
-33.617
-33.678
-33.751
-33.836
-33.933
-34.044
-34.17
-34.309
-34.464
-34.634
-34.82
-35.022
-35.24
-35.474
-35.724
-35.991
-36.274
-36.574
-36.89
-37.222
-37.57
-37.934
-38.314
-38.71
-39.121
-39.548
-39.99
-40.446
-40.916
-41.4
-41.897
-42.407
-42.928
-43.461
-44.006
-44.561
-45.125
-45.699
-46.281
-46.87
-47.466
-48.065
-48.668
-49.273
-49.878
-50.483
-51.087
-51.688
-52.284
-52.874
-53.455
-54.025
-54.581
-55.12
-55.637
-56.129
-56.595
-57.034
-57.44
-57.81
-58.14
-58.425
-58.663
-58.852
-58.986
-59.061
-59.07
-59.01
-58.887
-58.703
-58.459
-58.154
-57.786
-57.356
-56.869
-56.335
-55.757
-55.135
-54.471
-53.761
-53.02
-52.257
-51.482
-50.701
-49.905
-49.088
-48.258
-47.426
-46.606
-45.804
-45.009
-44.199
-43.367
-42.508
-41.626
-40.736
-39.847
-38.975
-38.127
-37.326
-36.648
-36.149
-35.85
-35.693
-35.514
-35.199
-34.765
-34.292
-33.836
-33.389
-32.945
-32.77
-33.435
-35.403
-38.541
-41.901
-44.518
-46.374
-49.227
-56.144
-68.801
-85.586
-100.944
-107.113
-98.759
-76.822
-48.715
-25.162
-15.066
-20.332
-35.716
-52.837
-64.447
-68.034
-65.986
-62.383
-59.903
-59.303
-59.729
-59.885
-59.781
-59.853
-60.279
-61.233
-62.453
-63.56
-64.472
-65.005
-64.697
-63.253
-60.656
-57.11
-53.086
-49.064
-45.396
-42.502
-40.975
-40.713
-40.614
-39.466
-36.497
-32.488
-29.301
-27.132
-22.891
-10.962
13.579
52.38
102.28
157.729
215.536
273.124
328.245
377.242
411.872
426.381
419.5
394.385
359.587
321.396
282.382
242.52
199.863
154.479
107.647
62.016
19.92
-17.917
-49.084
-72.552
-88.008
-93.631
-90.899
-81.298
-64.797
-44.829
-24.722
-7.3
2.775
4.8
1.532
-4.633
-10.196
-13.706
-16.757
-20.082
-23.93
-27.95
-30.692
-31.508
-30.533
-28.114
-24.865
-21.274
-17.775
-14.762
-12.454
-10.961
-10.232
-10.116
-10.477
-11.124
-11.806
-12.35
-12.65
-12.648
-12.381
-11.891
-11.2
-10.371
-9.447
-8.434
-7.34
-6.161
-4.886
-3.53
-2.113
-0.652
0.821
2.279
3.702
5.071
6.386
7.664
8.924
10.199
11.504
12.828
14.168
15.524
16.895
18.29
19.718
21.178
22.681
24.244
25.885
27.623
29.47
31.426
33.494
35.672
37.968
40.397
42.974
45.71
48.614
51.691
54.95
58.402
62.055
65.912
69.973
74.226
78.662
83.27
88.034
92.942
97.975
103.106
108.315
113.584
118.904
124.275
129.686
135.121
140.555
145.957
151.305
156.586
161.788
166.901
171.918
176.824
181.62
186.317
190.908
195.37
199.662
203.717
207.486
210.935
214.035
216.771
219.121
221.05
222.531
223.543
224.06
224.06
223.506
222.341
220.54
218.104
215.06
211.468
207.377
202.815
197.814
192.403
186.612
180.485
174.052
167.335
160.367
153.187
145.85
138.431
130.982
123.533
116.1
108.673
101.255
93.863
86.508
79.202
71.959
64.791
57.72
50.781
43.996
37.382
30.944
24.678
18.588
12.687
6.995
1.535
-3.673
-8.617
-13.283
-17.657
-21.728
-25.493
-28.954
-32.121
-35.002
-37.603
-39.93
-41.985
-43.778
-45.318
-46.619
-47.694
-48.557
-49.224
-49.71
-50.033
-50.211
-50.259
-50.191
-50.02
-49.759
-49.422
-49.021
-48.57
-48.079
-47.562
-47.029
-46.492
-45.96
-45.444
-44.951
-44.488
-44.062
-43.679
-43.343
-43.059
-42.829
-42.655
-42.54
-42.485
-42.489
-42.551
-42.672
-42.848
-43.077
-43.357
-43.684
-44.054
-44.463
-44.907
-45.382
-45.883
-46.406
-46.946
-47.5
-48.063
-48.631
-49.2
-49.767
-50.328
-50.879
-51.416
-51.937
-52.438
-52.917
-53.372
-53.799
-54.196
-54.562
-54.896
-55.194
-55.457
-55.683
-55.871
-56.02
-56.13
-56.202
-56.234
-56.227
-56.183
-56.1
-55.981
-55.826
-55.636
-55.412
-55.155
-54.866
-54.547
-54.198
-53.821
-53.417
-52.987
-52.533
-52.055
-51.556
-51.036
-50.498
-49.944
-49.374
-48.791
-48.197
-47.594
-46.983
-46.368
-45.749
-45.13
-44.512
-43.898
-43.289
-42.687
-42.094
-41.512
-40.942
-40.386
-39.844
-39.319
-38.812
-38.323
-37.853
-37.404
-36.976
-36.57
-36.187
-35.828
-35.493
-35.182
-34.895
-34.634
-34.396
-34.184
-33.995
-33.83
-33.689
-33.57
-33.473
-33.398
-33.342
-33.306
-33.288
-33.287
-33.302
-33.332
-33.376
-33.433
-33.502
-33.583
-33.675
-33.778
-33.892
-34.014
-34.146
-34.287
-34.436
-34.594
-34.759
-34.931
-35.111
-35.298
-35.492
-35.693
-35.9
-36.113
-36.333
-36.557
-36.787
-37.022
-37.261
-37.505
-37.752
-38.002
-38.255
-38.511
-38.768
-39.027
-39.285
-39.542
-39.798
-40.05
-40.298
-40.54
-40.774
-41
-41.215
-41.419
-41.609
-41.784
-41.943
-42.083
-42.204
-42.304
-42.382
-42.437
-42.468
-42.474
-42.454
-42.409
-42.337
-42.24
-42.118
-41.97
-41.797
-41.6
-41.38
-41.139
-40.877
-40.595
-40.297
-39.982
-39.654
-39.314
-38.965
-38.609
-38.249
-37.886
-37.524
-37.166
-36.813
-36.47
-36.138
-35.82
-35.519
-35.237
-34.977
-34.74
-34.528
-34.342
-34.185
-34.056
-33.957
-33.887
-33.847
-33.837
-33.855
-33.901
-33.974
-34.071
-34.192
-34.334
-34.496
-34.674
-34.867
-35.072
-35.286
-35.505
-35.728
-35.949
-36.167
-36.376
-36.573
-36.755
-36.917
-37.057
-37.17
-37.253
-37.303
-37.317
-37.292
-37.225
-37.113
-36.956
-36.75
-36.496
-36.192
-35.839
-35.437
-34.986
-34.487
-33.943
-33.354
-32.724
-32.054
-31.347
-30.606
-29.835
-29.037
-28.218
-27.381
-26.533
-25.68
-24.83
-23.99
-23.167
-22.368
-21.602
-20.875
-20.195
-19.568
-18.999
-18.494
-18.059
-17.701
-17.426
-17.24
-17.148
-17.154
-17.26
-17.47
-17.786
-18.204
-18.724
-19.344
-20.065
-20.893
-21.833
-22.885
-24.044
-25.306
-26.66
-28.093
-29.586
-31.111
-32.64
-34.144
-35.596
-36.98
-38.274
-39.455
-40.493
-41.352
-41.998
-42.411
-42.577
-42.485
-42.146
-41.575
-40.806
-39.898
-38.906
-37.889
-36.911
-36.027
-35.294
-34.777
-34.525
-34.611
-35.127
-36.09
-37.469
-39.164
-40.972
-42.72
-44.262
-45.363
-45.78
-45.357
-44.004
-41.887
-39.385
-36.721
-34.042
-31.482
-29.026
-26.663
-24.386
-21.642
-17.508
-11.317
-1.856
11.853
29.669
52.11
78.539
107.461
139.669
175.082
213.796
256.493
299.733
339.653
372.874
395.602
407.347
408.27
397.963
376.814
344.907
303.302
254.335
200.609
144.934
90.113
38.949
-5.906
-42.374
-69.335
-86.544
-94.324
-93.335
-84.807
-70.662
-53.122
-34.479
-16.569
-0.657
12.091
20.712
24.883
24.872
21.435
15.737
8.759
1.279
-5.721
-11.387
-15.259
-17.151
-17.267
-16.131
-14.177
-11.825
-9.635
-8.006
-7.147
-7.164
-7.948
-9.271
-10.942
-12.723
-14.357
-15.707
-16.699
-17.31
-17.582
-17.557
-17.265
-16.763
-16.105
-15.322
-14.438
-13.465
-12.409
-11.299
-10.171
-9.062
-7.999
-6.996
-6.059
-5.192
-4.393
-3.66
-2.985
-2.351
-1.748
-1.166
-0.599
-0.038
0.529
1.119
1.748
2.434
3.195
4.047
5.003
6.077
7.283
8.632
10.134
11.798
13.634
15.651
17.86
20.269
22.887
25.718
28.769
32.043
35.541
39.262
43.206
47.368
51.741
56.318
61.089
66.042
71.166
76.444
81.862
87.402
93.047
98.776
104.569
110.406
116.264
122.118
127.944
133.713
139.401
144.978
150.417
155.69
160.769
165.625
170.233
174.57
178.609
182.324
185.69
188.681
191.281
193.476
195.253
196.605
197.528
198.021
198.094
197.756
197.016
195.883
194.356
192.436
190.129
187.442
184.385
180.965
177.176
173.01
168.465
163.537
158.223
152.518
146.394
139.839
132.85
125.431
117.609
109.42
100.894
92.068
82.989
73.715
64.324
54.905
45.529
36.27
27.199
18.391
9.945
1.944
-5.549
-12.484
-18.836
-24.594
-29.743
-34.279
-38.225
-41.613
-44.501
-46.961
-49.047
-50.81
-52.301
-53.576
-54.708
-55.764
-56.786
-57.81
-58.857
-59.945
-61.092
-62.311
-63.594
-64.924
-66.274
-67.603
-68.891
-70.121
-71.276
-72.343
-73.3
-74.131
-74.832
-75.407
-75.862
-76.2
-76.424
-76.537
-76.552
-76.488
-76.362
-76.198
-76.008
-75.802
-75.589
-75.374
-75.161
-74.953
-74.749
-74.539
-74.32
-74.088
-73.842
-73.578
-73.294
-72.983
-72.641
-72.264
-71.849
-71.395
-70.901
-70.364
-69.788
-69.173
-68.521
-67.838
-67.126
-66.388
-65.627
-64.845
-64.046
-63.232
-62.406
-61.572
-60.732
-59.892
-59.054
-58.223
-57.404
-56.602
-55.819
-55.062
-54.334
-53.638
-52.979
-52.36
-51.783
-51.252
-50.767
-50.331
-49.945
-49.61
-49.324
-49.088
-48.901
-48.762
-48.668
-48.617
-48.608
-48.637
-48.702
-48.799
-48.926
-49.079
-49.255
-49.451
-49.662
-49.886
-50.118
-50.355
-50.592
-50.826
-51.053
-51.269
-51.47
-51.653
-51.814
-51.951
-52.06
-52.139
-52.185
-52.197
-52.171
-52.108
-52.004
-51.86
-51.675
-51.447
-51.177
-50.866
-50.512
-50.118
-49.684
-49.211
-48.701
-48.155
-47.574
-46.962
-46.319
-45.65
-44.956
-44.24
-43.506
-42.757
-41.997
-41.228
-40.455
-39.682
-38.912
-38.15
-37.399
-36.664
-35.949
-35.259
-34.598
-33.97
-33.381
-32.834
-32.334
-31.885
-31.492
-31.159
-30.89
-30.689
-30.559
-30.504
-30.527
-30.631
-30.817
-31.089
-31.447
-31.892
-32.425
-33.046
-33.755
-34.551
-35.432
-36.398
-37.446
-38.574
-39.779
-41.058
-42.406
-43.82
-45.294
-46.825
-48.406
-50.031
-51.695
-53.391
-55.111
-56.849
-58.597
-60.347
-62.092
-63.824
-65.533
-67.214
-68.857
-70.455
-72
-73.487
-74.908
-76.258
-77.53
-78.719
-79.82
-80.829
-81.741
-82.553
-83.262
-83.864
-84.359
-84.743
-85.015
-85.176
-85.224
-85.161
-84.985
-84.699
-84.304
-83.802
-83.196
-82.49
-81.688
-80.794
-79.813
-78.752
-77.616
-76.413
-75.148
-73.828
-72.459
-71.048
-69.601
-68.125
-66.624
-65.107
-63.578
-62.045
-60.513
-58.988
-57.475
-55.981
-54.51
-53.067
-51.656
-50.284
-48.954
-47.67
-46.436
-45.258
-44.139
-43.082
-42.089
-41.162
-40.302
-39.509
-38.781
-38.117
-37.513
-36.967
-36.477
-36.04
-35.653
-35.313
-35.017
-34.765
-34.553
-34.378
-34.236
-34.119
-34.023
-33.941
-33.866
-33.791
-33.709
-33.612
-33.497
-33.359
-33.194
-32.995
-32.755
-32.46
-32.105
-31.686
-31.2
-30.643
-30.018
-29.332
-28.598
-27.838
-27.066
-26.291
-25.515
-24.734
-23.944
-23.143
-22.326
-21.489
-20.626
-19.728
-18.792
-17.82
-16.805
-15.731
-14.57
-13.277
-11.826
-10.211
-8.435
-6.516
-4.48
-2.353
-0.179
1.985
4.087
6.079
7.926
9.607
11.084
12.312
13.23
13.762
13.855
13.487
12.641
11.314
9.518
7.269
4.612
1.628
-1.62
-5.077
-8.698
-12.453
-16.294
-20.149
-23.943
-27.595
-31.038
-34.23
-37.124
-39.668
-41.822
-43.552
-44.855
-45.768
-46.32
-46.519
-46.376
-45.897
-45.102
-44.055
-42.824
-41.465
-40.036
-38.592
-37.181
-35.901
-34.874
-34.163
-33.771
-33.6
-33.451
-33.178
-32.706
-31.905
-30.607
-28.689
-26.094
-23.035
-20.019
-17.457
-15.548
-14.367
-13.845
-13.831
-14.174
-14.301
-13.102
-9.468
-2.47
8.559
23.853
43.571
68.06
97.196
130.182
165.979
203.25
240.696
277.457
312.466
343.999
370.455
390.576
403.294
408.132
404.749
392.372
370.531
340.335
303.967
263.542
221.286
177.355
129.953
79.838
29.762
-15.319
-47.787
-63.338
-61.97
-46.165
-21.165
7.805
36.935
61.765
77.395
81.229
73.044
56.389
38.376
23.885
15.007
11.129
8.829
6.479
4.252
2.657
2.727
4.407
6.666
8.729
10.135
10.661
10.356
9.3
7.545
5.273
2.776
0.329
-1.901
-3.81
-5.368
-6.581
-7.43
-7.918
-8.072
-7.927
-7.516
-6.865
-5.986
-4.888
-3.591
-2.12
-0.508
1.208
2.992
4.812
6.642
8.468
10.274
12.053
13.798
15.506
17.181
18.834
20.469
22.095
23.717
25.343
26.983
28.652
30.361
32.12
33.939
35.823
37.781
39.824
41.961
44.199
46.547
49.011
51.602
54.327
57.198
60.221
63.399
66.735
70.234
73.9
77.739
81.752
85.934
90.277
94.771
99.407
104.169
109.035
113.973
118.955
123.957
128.962
133.961
138.939
143.881
148.768
153.585
158.326
162.986
167.556
172.022
176.374
180.611
184.745
188.806
192.811
196.756
200.625
204.392
208.036
211.53
214.84
217.924
220.725
223.203
225.329
227.08
228.427
229.322
229.702
229.488
228.624
227.073
224.811
221.823
218.1
213.653
208.51
202.719
196.334
189.383
181.884
173.863
165.361
156.446
147.199
137.716
128.083
118.387
108.723
99.177
89.823
80.711
71.872
63.325
55.098
47.245
39.819
32.859
26.385
20.4
14.898
9.862
5.267
1.067
-2.807
-6.413
-9.793
-12.971
-15.962
-18.778
-21.447
-24.013
-26.509
-28.959
-31.381
-33.785
-36.183
-38.582
-40.974
-43.331
-45.608
-47.773
-49.81
-51.712
-53.48
-55.111
-56.597
-57.928
-59.106
-60.136
-61.023
-61.771
-62.38
-62.857
-63.215
-63.481
-63.683
-63.845
-63.98
-64.1
-64.212
-64.326
-64.451
-64.59
-64.742
-64.905
-65.081
-65.27
-65.476
-65.699
-65.935
-66.178
-66.425
-66.669
-66.908
-67.139
-67.357
-67.559
-67.744
-67.908
-68.054
-68.178
-68.278
-68.352
-68.396
-68.408
-68.385
-68.324
-68.221
-68.073
-67.878
-67.635
-67.34
-66.993
-66.592
-66.135
-65.621
-65.05
-64.422
-63.737
-62.994
-62.195
-61.34
-60.432
-59.472
-58.461
-57.403
-56.3
-55.154
-53.968
-52.746
-51.491
-50.206
-48.894
-47.56
-46.208
-44.841
-43.464
-42.082
-40.698
-39.317
-37.944
-36.584
-35.24
-33.916
-32.618
-31.348
-30.11
-28.909
-27.746
-26.626
-25.551
-24.523
-23.544
-22.616
-21.74
-20.917
-20.146
-19.429
-18.764
-18.152
-17.591
-17.079
-16.616
-16.2
-15.829
-15.5
-15.211
-14.959
-14.742
-14.556
-14.399
-14.267
-14.157
-14.065
-13.99
-13.926
-13.873
-13.825
-13.781
-13.737
-13.691
-13.64
-13.582
-13.516
-13.439
-13.35
-13.249
-13.135
-13.008
-12.867
-12.713
-12.546
-12.368
-12.179
-11.981
-11.775
-11.562
-11.345
-11.125
-10.904
-10.684
-10.467
-10.256
-10.051
-9.857
-9.673
-9.502
-9.346
-9.207
-9.085
-8.983
-8.902
-8.843
-8.806
-8.794
-8.805
-8.841
-8.901
-8.985
-9.094
-9.225
-9.378
-9.552
-9.745
-9.957
-10.185
-10.428
-10.685
-10.952
-11.229
-11.514
-11.803
-12.096
-12.391
-12.684
-12.976
-13.264
-13.545
-13.82
-14.087
-14.343
-14.589
-14.823
-15.044
-15.251
-15.444
-15.621
-15.783
-15.93
-16.06
-16.175
-16.275
-16.359
-16.429
-16.485
-16.527
-16.557
-16.575
-16.581
-16.578
-16.566
-16.545
-16.517
-16.484
-16.445
-16.403
-16.358
-16.311
-16.263
-16.216
-16.17
-16.126
-16.085
-16.048
-16.016
-15.99
-15.971
-15.959
-15.956
-15.963
-15.98
-16.009
-16.051
-16.106
-16.174
-16.258
-16.357
-16.473
-16.606
-16.758
-16.929
-17.119
-17.331
-17.564
-17.82
-18.098
-18.4
-18.725
-19.075
-19.45
-19.849
-20.274
-20.723
-21.198
-21.697
-22.22
-22.766
-23.335
-23.924
-24.532
-25.157
-25.797
-26.449
-27.113
-27.784
-28.461
-29.141
-29.821
-30.497
-31.167
-31.828
-32.476
-33.108
-33.721
-34.311
-34.875
-35.41
-35.914
-36.383
-36.815
-37.207
-37.557
-37.864
-38.124
-38.338
-38.505
-38.624
-38.696
-38.722
-38.705
-38.648
-38.556
-38.431
-38.28
-38.108
-37.921
-37.726
-37.529
-37.336
-37.153
-36.987
-36.847
-36.739
-36.672
-36.652
-36.688
-36.788
-36.96
-37.212
-37.551
-37.98
-38.505
-39.131
-39.862
-40.706
-41.669
-42.753
-43.957
-45.283
-46.724
-48.275
-49.923
-51.642
-53.41
-55.202
-56.995
-58.772
-60.51
-62.19
-63.786
-65.267
-66.61
-67.796
-68.811
-69.642
-70.288
-70.744
-71.034
-71.22
-71.357
-71.506
-71.713
-71.989
-72.365
-72.895
-73.611
-74.53
-75.667
-77.01
-78.587
-80.475
-82.665
-85.064
-87.566
-90.027
-92.193
-93.765
-94.461
-93.859
-92.099
-89.982
-87.466
-84.282
-79.673
-71.559
-60.59
-49.2
-39.454
-35.078
-35.927
-38.639
-40.611
-36.449
-23.396
-1.297
30.483
68.253
109.548
153.362
197.711
243.981
290.489
332.203
364.855
382.552
383.62
371.127
347.621
316.676
280.229
238.052
192.031
143.779
94.613
46.588
0.011
-43.138
-79.02
-104.66
-116.862
-116.077
-106.419
-91.842
-76.973
-64.178
-52.899
-43.145
-34.616
-27.447
-23.126
-22.079
-23.771
-27.497
-31.999
-36.237
-39.916
-42.788
-44.479
-44.896
-44.137
-42.449
-40.402
-38.584
-37.237
-36.484
-36.44
-37.09
-38.386
-40.245
-42.402
-44.544
-46.477
-48.091
-49.333
-50.218
-50.746
-50.9
-50.713
-50.238
-49.523
-48.608
-47.513
-46.242
-44.811
-43.254
-41.61
-39.922
-38.231
-36.56
-34.923
-33.33
-31.786
-30.294
-28.852
-27.453
-26.082
-24.728
-23.382
-22.04
-20.693
-19.33
-17.936
-16.494
-14.993
-13.42
-11.767
-10.024
-8.182
-6.229
-4.16
-1.968
0.354
2.813
5.418
8.179
11.104
14.198
17.468
20.921
24.565
28.41
32.46
36.711
41.16
45.801
50.622
55.61
60.746
66.001
71.352
76.778
82.26
87.784
93.331
98.874
104.389
109.854
115.253
120.578
125.824
130.987
136.073
141.101
146.097
151.095
156.117
161.164
166.232
171.306
176.38
181.448
186.494
191.494
196.415
201.219
205.864
210.3
214.455
218.232
221.528
224.238
226.281
227.599
228.147
227.887
226.778
224.786
221.893
218.09
213.378
207.76
201.243
193.858
185.676
176.797
167.334
157.396
147.079
136.471
125.658
114.727
103.772
92.882
82.143
71.65
61.493
51.765
42.56
33.937
25.925
18.527
11.736
5.545
-0.054
-5.076
-9.541
-13.477
-16.92
-19.907
-22.489
-24.739
-26.727
-28.527
-30.212
-31.832
-33.42
-35.003
-36.594
-38.204
-39.844
-41.514
-43.21
-44.931
-46.666
-48.405
-50.126
-51.785
-53.349
-54.789
-56.076
-57.195
-58.138
-58.898
-59.478
-59.889
-60.139
-60.241
-60.21
-60.055
-59.789
-59.429
-58.993
-58.509
-57.997
-57.474
-56.953
-56.446
-55.957
-55.494
-55.059
-54.646
-54.252
-53.876
-53.514
-53.166
-52.83
-52.503
-52.181
-51.861
-51.538
-51.211
-50.877
-50.534
-50.182
-49.818
-49.443
-49.058
-48.663
-48.259
-47.844
-47.419
-46.981
-46.532
-46.07
-45.595
-45.107
-44.607
-44.094
-43.57
-43.038
-42.498
-41.951
-41.4
-40.848
-40.295
-39.744
-39.198
-38.658
-38.127
-37.606
-37.099
-36.605
-36.129
-35.67
-35.231
-34.814
-34.419
-34.049
-33.703
-33.384
-33.093
-32.829
-32.595
-32.392
-32.219
-32.077
-31.967
-31.89
-31.844
-31.831
-31.849
-31.897
-31.976
-32.084
-32.22
-32.382
-32.57
-32.783
-33.018
-33.275
-33.552
-33.848
-34.161
-34.489
-34.832
-35.188
-35.554
-35.93
-36.315
-36.706
-37.103
-37.504
-37.908
-38.313
-38.718
-39.122
-39.523
-39.92
-40.312
-40.698
-41.077
-41.448
-41.809
-42.161
-42.503
-42.835
-43.155
-43.463
-43.76
-44.045
-44.317
-44.578
-44.826
-45.062
-45.286
-45.498
-45.699
-45.889
-46.068
-46.236
-46.394
-46.542
-46.68
-46.809
-46.929
-47.041
-47.144
-47.24
-47.329
-47.411
-47.487
-47.558
-47.622
-47.682
-47.737
-47.787
-47.834
-47.876
-47.915
-47.95
-47.982
-48.01
-48.036
-48.058
-48.077
-48.092
-48.104
-48.112
-48.117
-48.117
-48.113
-48.105
-48.093
-48.076
-48.054
-48.028
-47.996
-47.959
-47.917
-47.87
-47.817
-47.759
-47.695
-47.625
-47.549
-47.467
-47.38
-47.286
-47.187
-47.081
-46.969
-46.85
-46.726
-46.595
-46.458
-46.314
-46.164
-46.008
-45.846
-45.678
-45.503
-45.323
-45.137
-44.946
-44.749
-44.547
-44.34
-44.128
-43.912
-43.692
-43.468
-43.241
-43.012
-42.78
-42.547
-42.313
-42.078
-41.844
-41.611
-41.38
-41.151
-40.925
-40.704
-40.487
-40.276
-40.072
-39.875
-39.686
-39.507
-39.337
-39.177
-39.028
-38.891
-38.765
-38.651
-38.549
-38.459
-38.381
-38.315
-38.26
-38.215
-38.18
-38.152
-38.131
-38.113
-38.099
-38.084
-38.067
-38.044
-38.014
-37.973
-37.919
-37.847
-37.756
-37.642
-37.502
-37.332
-37.129
-36.89
-36.612
-36.293
-35.929
-35.518
-35.059
-34.549
-33.987
-33.371
-32.7
-31.975
-31.194
-30.36
-29.472
-28.534
-27.548
-26.517
-25.447
-24.341
-23.207
-22.052
-20.883
-19.707
-18.535
-17.375
-16.237
-15.129
-14.06
-13.04
-12.078
-11.184
-10.367
-9.637
-9.003
-8.475
-8.061
-7.771
-7.61
-7.587
-7.703
-7.962
-8.366
-8.92
-9.629
-10.496
-11.523
-12.706
-14.043
-15.524
-17.139
-18.869
-20.686
-22.563
-24.474
-26.396
-28.309
-30.194
-32.03
-33.788
-35.435
-36.941
-38.281
-39.437
-40.393
-41.138
-41.672
-42.027
-42.249
-42.391
-42.497
-42.583
-42.665
-42.778
-42.953
-43.228
-43.646
-44.226
-45.01
-46.07
-47.421
-48.999
-50.68
-52.227
-53.366
-53.887
-53.537
-51.998
-49.123
-45.004
-39.861
-34.083
-28.221
-22.682
-17.771
-14.072
-11.357
-8.294
-4.38
0.817
7.235
13.054
19.579
30.955
50.914
83.627
128.655
180.122
232.502
281.123
323.325
360.066
391.427
414.7
427.684
427.118
410.506
380.15
338.685
289.991
239.661
189.27
139.623
91.528
43.86
-0.661
-37.578
-64.02
-76.649
-76.561
-68.542
-56.468
-44.753
-35.47
-27.653
-20.887
-14.758
-9.279
-5.601
-4.313
-5.243
-7.808
-11.113
-14.492
-17.5
-19.949
-21.726
-22.541
-22.31
-21.207
-19.478
-17.511
-15.746
-14.36
-13.433
-13.11
-13.396
-14.238
-15.566
-17.15
-18.709
-20.076
-21.15
-21.872
-22.251
-22.283
-21.952
-21.298
-20.377
-19.236
-17.92
-16.447
-14.822
-13.063
-11.2
-9.275
-7.33
-5.406
-3.526
-1.703
0.052
1.733
3.339
4.874
6.35
7.782
9.185
10.565
11.929
13.288
14.653
16.038
17.46
18.933
20.47
22.083
23.785
25.587
27.498
29.529
31.687
33.982
36.422
39.015
41.768
44.694
47.803
51.106
54.612
58.322
62.235
66.345
70.647
75.127
79.77
84.55
89.446
94.436
99.508
104.651
109.847
115.076
120.311
125.526
130.703
135.836
140.916
145.939
150.907
155.831
160.744
165.684
170.677
175.732
180.839
185.981
191.15
196.337
201.535
206.726
211.876
216.942
221.891
226.678
231.24
235.496
239.324
242.595
245.211
247.096
248.201
248.482
247.884
246.355
243.867
240.406
235.977
230.591
224.24
216.936
208.728
199.695
189.971
179.697
168.988
157.944
146.661
135.238
123.796
112.456
101.306
90.42
79.865
69.714
60.065
50.995
42.546
34.728
27.513
20.864
14.762
9.188
4.106
-0.529
-4.784
-8.735
-12.423
-15.88
-19.142
-22.251
-25.27
-28.25
-31.218
-34.181
-37.134
-40.067
-42.981
-45.875
-48.725
-51.502
-54.166
-56.672
-58.998
-61.131
-63.053
-64.752
-66.207
-67.401
-68.336
-69.02
-69.464
-69.679
-69.671
-69.451
-69.04
-68.464
-67.753
-66.937
-66.04
-65.077
-64.07
-63.031
-61.977
-60.92
-59.865
-58.816
-57.778
-56.756
-55.756
-54.784
-53.841
-52.929
-52.046
-51.193
-50.369
-49.576
-48.812
-48.078
-47.375
-46.704
-46.066
-45.463
-44.896
-44.366
-43.871
-43.411
-42.983
-42.587
-42.221
-41.882
-41.569
-41.28
-41.013
-40.767
-40.541
-40.332
-40.14
-39.962
-39.798
-39.646
-39.504
-39.372
-39.248
-39.131
-39.02
-38.914
-38.813
-38.715
-38.62
-38.528
-38.438
-38.35
-38.262
-38.175
-38.089
-38.002
-37.916
-37.83
-37.744
-37.657
-37.57
-37.482
-37.394
-37.305
-37.215
-37.124
-37.031
-36.936
-36.838
-36.738
-36.635
-36.529
-36.42
-36.308
-36.194
-36.076
-35.956
-35.834
-35.71
-35.585
-35.458
-35.33
-35.202
-35.072
-34.943
-34.813
-34.684
-34.555
-34.427
-34.301
-34.176
-34.054
-33.935
-33.82
-33.709
-33.603
-33.504
-33.412
-33.328
-33.252
-33.187
-33.132
-33.088
-33.057
-33.038
-33.033
-33.041
-33.063
-33.098
-33.147
-33.209
-33.285
-33.374
-33.476
-33.591
-33.719
-33.858
-34.01
-34.174
-34.349
-34.534
-34.731
-34.937
-35.153
-35.377
-35.61
-35.85
-36.097
-36.35
-36.608
-36.87
-37.135
-37.402
-37.67
-37.937
-38.203
-38.466
-38.726
-38.982
-39.234
-39.48
-39.72
-39.955
-40.183
-40.404
-40.617
-40.823
-41.021
-41.211
-41.392
-41.563
-41.726
-41.879
-42.022
-42.155
-42.278
-42.39
-42.491
-42.58
-42.658
-42.724
-42.778
-42.82
-42.85
-42.869
-42.877
-42.875
-42.863
-42.843
-42.814
-42.778
-42.735
-42.687
-42.633
-42.574
-42.51
-42.444
-42.375
-42.305
-42.234
-42.164
-42.096
-42.031
-41.969
-41.913
-41.861
-41.817
-41.781
-41.754
-41.738
-41.734
-41.744
-41.769
-41.811
-41.87
-41.947
-42.042
-42.155
-42.286
-42.433
-42.596
-42.773
-42.962
-43.163
-43.373
-43.593
-43.82
-44.054
-44.292
-44.534
-44.776
-45.016
-45.249
-45.47
-45.675
-45.859
-46.018
-46.149
-46.249
-46.313
-46.337
-46.322
-46.262
-46.156
-45.995
-45.769
-45.473
-45.108
-44.675
-44.184
-43.64
-43.047
-42.415
-41.756
-41.078
-40.383
-39.667
-38.912
-38.113
-37.268
-36.385
-35.482
-34.566
-33.637
-32.691
-31.722
-30.725
-29.699
-28.629
-27.487
-26.267
-24.975
-23.638
-22.313
-21.04
-19.842
-18.74
-17.739
-16.857
-16.121
-15.554
-15.172
-14.994
-15.038
-15.34
-15.959
-16.93
-18.26
-19.928
-21.875
-24.06
-26.452
-29.02
-31.732
-34.547
-37.414
-40.296
-43.168
-46.002
-48.766
-51.402
-53.83
-55.988
-57.833
-59.352
-60.56
-61.465
-62.082
-62.431
-62.552
-62.499
-62.316
-62.039
-61.697
-61.326
-60.978
-60.721
-60.615
-60.739
-61.194
-62.013
-63.163
-64.534
-65.886
-66.992
-67.686
-67.747
-66.931
-65.117
-62.305
-58.762
-55.058
-51.69
-48.956
-47.071
-46.183
-46.284
-47.142
-48.015
-47.599
-44.555
-37.819
-26.512
-9.717
13.331
43.102
78.916
118.687
160.375
202.601
245.545
289.894
334.147
374.366
404.023
416.848
410.613
386.993
351.301
309.752
265.975
221.232
175.227
127.66
79.969
35.136
-3.716
-34.62
-56.8
-70.543
-76.673
-75.636
-68.345
-56.665
-42.592
-28.163
-15.101
-4.193
4.069
9.005
10.477
9.001
5.408
0.944
-3.27
-6.784
-9.326
-10.516
-10.238
-8.608
-5.928
-2.864
-0.087
2.113
3.592
4.236
4.062
3.11
1.459
-0.62
-2.806
-4.898
-6.759
-8.317
-9.575
-10.516
-11.114
-11.39
-11.385
-11.137
-10.686
-10.054
-9.246
-8.279
-7.176
-5.97
-4.702
-3.41
-2.125
-0.866
0.354
1.529
2.652
3.723
4.746
5.735
6.704
7.663
8.621
9.586
10.568
11.581
12.64
13.757
14.944
16.21
17.566
19.022
20.587
22.268
24.074
26.01
28.085
30.307
32.684
35.222
37.929
40.813
43.882
47.145
50.609
54.27
58.127
62.172
66.398
70.791
75.334
80.001
84.77
89.625
94.549
99.532
104.554
109.592
114.623
119.626
124.585
129.493
134.345
139.137
143.881
148.595
153.309
158.059
162.865
167.727
172.641
177.597
182.585
187.601
192.629
197.642
202.614
207.513
212.299
216.923
221.305
225.332
228.894
231.877
234.191
235.778
236.574
236.521
235.57
233.699
230.9
227.162
222.463
216.782
210.112
202.504
194.067
184.914
175.145
164.957
154.553
143.998
133.426
122.967
112.545
102.68
93.866
85.537
77.579
68.942
58.32
47.268
36.794
28.369
24.031
21.909
20.4
18.377
14
8.457
2.984
-2.155
-6.198
-9.617
-13.033
-16.392
-19.801
-23.239
-26.59
-29.919
-33.283
-36.649
-39.983
-43.246
-46.378
-49.333
-52.092
-54.638
-56.959
-59.052
-60.91
-62.518
-63.876
-64.989
-65.862
-66.501
-66.913
-67.108
-67.107
-66.943
-66.651
-66.259
-65.785
-65.242
-64.643
-64
-63.325
-62.627
-61.908
-61.172
-60.427
-59.68
-58.941
-58.214
-57.502
-56.804
-56.119
-55.449
-54.794
-54.155
-53.535
-52.932
-52.35
-51.792
-51.261
-50.761
-50.292
-49.854
-49.449
-49.076
-48.734
-48.424
-48.144
-47.893
-47.67
-47.475
-47.308
-47.168
-47.053
-46.964
-46.9
-46.859
-46.841
-46.845
-46.869
-46.913
-46.974
-47.054
-47.149
-47.26
-47.385
-47.523
-47.673
-47.835
-48.006
-48.185
-48.37
-48.561
-48.754
-48.949
-49.145
-49.339
-49.53
-49.717
-49.899
-50.075
-50.242
-50.401
-50.55
-50.687
-50.812
-50.924
-51.022
-51.105
-51.172
-51.223
-51.257
-51.275
-51.276
-51.26
-51.226
-51.175
-51.107
-51.022
-50.92
-50.802
-50.669
-50.521
-50.359
-50.184
-49.999
-49.803
-49.6
-49.389
-49.174
-48.954
-48.733
-48.51
-48.289
-48.069
-47.853
-47.642
-47.436
-47.236
-47.044
-46.861
-46.686
-46.52
-46.364
-46.218
-46.081
-45.955
-45.838
-45.732
-45.635
-45.548
-45.471
-45.403
-45.343
-45.291
-45.246
-45.208
-45.174
-45.144
-45.115
-45.088
-45.06
-45.031
-44.998
-44.96
-44.917
-44.866
-44.807
-44.739
-44.662
-44.573
-44.473
-44.362
-44.239
-44.104
-43.957
-43.799
-43.63
-43.45
-43.26
-43.061
-42.852
-42.635
-42.411
-42.179
-41.942
-41.701
-41.457
-41.211
-40.965
-40.721
-40.48
-40.245
-40.017
-39.798
-39.589
-39.393
-39.211
-39.044
-38.894
-38.763
-38.651
-38.559
-38.489
-38.44
-38.414
-38.41
-38.429
-38.471
-38.534
-38.62
-38.727
-38.854
-39.002
-39.17
-39.357
-39.562
-39.784
-40.022
-40.275
-40.54
-40.817
-41.104
-41.399
-41.7
-42.005
-42.314
-42.624
-42.934
-43.243
-43.549
-43.85
-44.147
-44.438
-44.722
-44.998
-45.266
-45.526
-45.777
-46.02
-46.254
-46.479
-46.695
-46.903
-47.103
-47.294
-47.476
-47.649
-47.814
-47.969
-48.116
-48.254
-48.382
-48.502
-48.613
-48.714
-48.807
-48.889
-48.96
-49.02
-49.067
-49.099
-49.116
-49.115
-49.094
-49.051
-48.985
-48.893
-48.772
-48.619
-48.433
-48.21
-47.948
-47.644
-47.296
-46.902
-46.46
-45.97
-45.428
-44.836
-44.192
-43.497
-42.75
-41.952
-41.104
-40.207
-39.262
-38.272
-37.24
-36.168
-35.061
-33.924
-32.763
-31.585
-30.397
-29.207
-28.025
-26.859
-25.718
-24.61
-23.545
-22.528
-21.57
-20.679
-19.862
-19.131
-18.493
-17.957
-17.529
-17.216
-17.025
-16.959
-17.021
-17.212
-17.531
-17.983
-18.575
-19.314
-20.201
-21.237
-22.418
-23.737
-25.185
-26.745
-28.392
-30.099
-31.839
-33.583
-35.313
-37.007
-38.639
-40.179
-41.585
-42.822
-43.862
-44.687
-45.283
-45.649
-45.79
-45.733
-45.527
-45.217
-44.856
-44.499
-44.191
-43.994
-43.976
-44.191
-44.721
-45.662
-47.051
-48.87
-51.024
-53.31
-55.528
-57.5
-58.976
-59.679
-59.43
-58.174
-56.108
-53.672
-51.271
-49.181
-47.624
-46.776
-46.666
-47.08
-47.328
-46.258
-42.626
-35.307
-23.404
-6.112
17.241
46.924
82.593
123.195
167.144
212.658
257.949
300.905
339.147
370.497
393.08
405.516
407.014
397.064
375.493
343.484
303.482
257.892
208.847
156.95
101.854
45.366
-8.463
-53.487
-83.643
-96.824
-95.178
-84.205
-69.956
-56.166
-43.902
-32.24
-20.391
-8.749
1.323
8.055
10.791
9.986
6.509
1.511
-4.231
-10.224
-15.696
-19.942
-22.645
-23.714
-23.349
-21.996
-19.968
-17.587
-15.357
-13.643
-12.624
-12.381
-12.824
-13.766
-15.062
-16.513
-17.85
-18.909
-19.607
-19.901
-19.827
-19.414
-18.677
-17.658
-16.414
-14.982
-13.39
-11.656
-9.783
-7.794
-5.724
-3.612
-1.498
0.59
2.639
4.636
6.574
8.449
10.262
12.02
13.734
15.411
17.058
18.678
20.277
21.864
23.452
25.051
26.676
28.339
30.053
31.827
33.672
35.598
37.615
39.731
41.957
44.299
46.769
49.376
52.136
55.065
58.174
61.469
64.953
68.626
72.483
76.519
80.719
85.062
89.526
94.093
98.749
103.485
108.289
113.141
118.019
122.893
127.747
132.573
137.369
142.131
146.867
151.594
156.344
161.173
166.121
171.208
176.443
181.81
187.305
192.927
198.669
204.522
210.461
216.439
222.414
228.337
234.133
239.709
244.934
249.644
253.703
257.004
259.466
261.028
261.625
261.187
259.662
257.017
253.234
248.316
242.259
235.071
226.802
217.538
207.412
196.6
185.256
173.512
161.487
149.292
137.05
124.892
112.937
101.282
90.015
79.222
68.999
59.435
50.578
42.443
35.007
28.215
22.019
16.385
11.273
6.64
2.428
-1.429
-4.999
-8.326
-11.455
-14.438
-17.334
-20.2
-23.073
-25.967
-28.876
-31.783
-34.676
-37.544
-40.369
-43.129
-45.796
-48.333
-50.707
-52.894
-54.879
-56.642
-58.162
-59.425
-60.42
-61.153
-61.637
-61.885
-61.911
-61.73
-61.358
-60.82
-60.14
-59.344
-58.461
-57.513
-56.52
-55.499
-54.466
-53.435
-52.418
-51.421
-50.447
-49.501
-48.586
-47.706
-46.866
-46.066
-45.307
-44.588
-43.91
-43.27
-42.67
-42.11
-41.589
-41.109
-40.669
-40.272
-39.918
-39.609
-39.345
-39.124
-38.947
-38.81
-38.714
-38.655
-38.631
-38.64
-38.679
-38.747
-38.841
-38.96
-39.1
-39.26
-39.437
-39.629
-39.834
-40.05
-40.275
-40.507
-40.744
-40.984
-41.227
-41.47
-41.712
-41.951
-42.186
-42.415
-42.637
-42.85
-43.052
-43.242
-43.419
-43.582
-43.728
-43.858
-43.969
-44.062
-44.136
-44.191
-44.225
-44.24
-44.235
-44.21
-44.165
-44.1
-44.017
-43.915
-43.795
-43.658
-43.505
-43.336
-43.153
-42.956
-42.746
-42.525
-42.294
-42.053
-41.804
-41.549
-41.288
-41.023
-40.756
-40.488
-40.221
-39.957
-39.697
-39.443
-39.196
-38.959
-38.732
-38.517
-38.315
-38.127
-37.954
-37.797
-37.656
-37.532
-37.426
-37.337
-37.266
-37.213
-37.177
-37.159
-37.158
-37.173
-37.206
-37.254
-37.317
-37.395
-37.487
-37.593
-37.711
-37.841
-37.981
-38.132
-38.291
-38.457
-38.629
-38.805
-38.985
-39.167
-39.35
-39.532
-39.713
-39.891
-40.065
-40.235
-40.399
-40.558
-40.709
-40.853
-40.99
-41.118
-41.238
-41.35
-41.453
-41.548
-41.634
-41.711
-41.781
-41.842
-41.895
-41.94
-41.978
-42.008
-42.03
-42.045
-42.054
-42.056
-42.051
-42.041
-42.026
-42.005
-41.979
-41.949
-41.915
-41.876
-41.834
-41.788
-41.739
-41.686
-41.629
-41.57
-41.507
-41.44
-41.37
-41.297
-41.22
-41.139
-41.055
-40.966
-40.874
-40.778
-40.678
-40.575
-40.469
-40.361
-40.25
-40.139
-40.026
-39.914
-39.804
-39.696
-39.591
-39.492
-39.399
-39.313
-39.236
-39.17
-39.116
-39.075
-39.049
-39.039
-39.046
-39.072
-39.118
-39.185
-39.273
-39.384
-39.518
-39.676
-39.858
-40.064
-40.295
-40.549
-40.826
-41.126
-41.448
-41.789
-42.148
-42.522
-42.91
-43.308
-43.713
-44.121
-44.528
-44.93
-45.323
-45.702
-46.064
-46.402
-46.713
-46.992
-47.235
-47.436
-47.591
-47.697
-47.748
-47.743
-47.676
-47.546
-47.35
-47.086
-46.751
-46.345
-45.866
-45.315
-44.692
-43.998
-43.234
-42.402
-41.507
-40.551
-39.54
-38.48
-37.378
-36.243
-35.083
-33.907
-32.727
-31.551
-30.39
-29.255
-28.154
-27.097
-26.093
-25.151
-24.282
-23.497
-22.804
-22.212
-21.73
-21.366
-21.126
-21.017
-21.038
-21.191
-21.479
-21.904
-22.477
-23.204
-24.085
-25.12
-26.306
-27.632
-29.09
-30.659
-32.311
-34.015
-35.745
-37.474
-39.189
-40.869
-42.49
-44.02
-45.418
-46.649
-47.692
-48.53
-49.145
-49.536
-49.716
-49.719
-49.604
-49.42
-49.207
-49.004
-48.851
-48.787
-48.861
-49.121
-49.629
-50.475
-51.71
-53.306
-55.157
-57.068
-58.825
-60.223
-61.007
-60.844
-59.495
-56.977
-53.584
-49.807
-46.101
-42.829
-40.363
-39.076
-39.272
-40.286
-40.377
-38.364
-33.4
-25.628
-16.567
-4.719
13.333
40.354
79.496
129.221
183.713
238.146
287.254
327.806
359.835
382.62
395.536
398.395
390.207
370.625
340.585
301.671
256.466
208.572
160.336
112.914
66.962
21.885
-20.467
-56.127
-81.719
-93.576
-92.178
-82.015
-67.324
-53.051
-41.506
-31.673
-23.263
-15.772
-9.3
-5.5
-4.867
-6.882
-10.874
-15.589
-20.017
-23.887
-26.943
-28.796
-29.349
-28.702
-27.097
-25.097
-23.277
-21.872
-21.007
-20.806
-21.258
-22.313
-23.888
-25.724
-27.515
-29.076
-30.301
-31.14
-31.611
-31.716
-31.444
-30.83
-29.929
-28.791
-27.458
-25.954
-24.284
-22.469
-20.543
-18.547
-16.525
-14.519
-12.553
-10.643
-8.799
-7.027
-5.332
-3.712
-2.159
-0.659
0.8
2.225
3.624
5.003
6.376
7.756
9.16
10.602
12.093
13.644
15.267
16.975
18.778
20.687
22.712
24.861
27.144
29.573
32.158
34.907
37.825
40.922
44.203
47.68
51.357
55.234
59.307
63.572
68.018
72.633
77.401
82.293
87.285
92.353
97.472
102.627
107.805
112.987
118.156
123.292
128.382
133.425
138.42
143.361
148.248
153.078
157.852
162.593
167.313
172.013
176.693
181.334
185.908
190.391
194.749
198.939
202.912
206.599
209.928
212.839
215.278
217.194
218.541
219.256
219.291
218.61
217.183
214.994
212.044
208.334
203.877
198.707
192.864
186.407
179.414
171.951
164.075
155.842
147.288
138.456
129.389
120.128
110.72
101.216
91.657
82.093
72.577
63.149
53.865
44.76
35.846
27.14
18.664
10.453
2.562
-4.944
-12.017
-18.615
-24.711
-30.291
-35.342
-39.865
-43.882
-47.429
-50.557
-53.309
-55.701
-57.749
-59.474
-60.905
-62.093
-63.099
-63.964
-64.726
-65.415
-66.056
-66.671
-67.272
-67.851
-68.382
-68.828
-69.165
-69.385
-69.487
-69.474
-69.342
-69.08
-68.681
-68.147
-67.482
-66.69
-65.774
-64.736
-63.585
-62.341
-61.032
-59.688
-58.335
-56.987
-55.656
-54.352
-53.084
-51.858
-50.679
-49.544
-48.451
-47.403
-46.4
-45.446
-44.541
-43.682
-42.865
-42.086
-41.342
-40.63
-39.948
-39.295
-38.669
-38.068
-37.495
-36.95
-36.435
-35.948
-35.489
-35.056
-34.648
-34.263
-33.9
-33.557
-33.232
-32.924
-32.632
-32.357
-32.097
-31.852
-31.624
-31.411
-31.214
-31.034
-30.871
-30.724
-30.595
-30.483
-30.39
-30.314
-30.257
-30.218
-30.198
-30.196
-30.213
-30.248
-30.3
-30.37
-30.457
-30.56
-30.681
-30.818
-30.972
-31.144
-31.332
-31.538
-31.761
-32.002
-32.26
-32.536
-32.828
-33.137
-33.462
-33.802
-34.158
-34.529
-34.913
-35.311
-35.722
-36.145
-36.579
-37.023
-37.477
-37.94
-38.411
-38.889
-39.374
-39.864
-40.359
-40.857
-41.358
-41.86
-42.361
-42.861
-43.358
-43.849
-44.335
-44.812
-45.279
-45.736
-46.179
-46.608
-47.021
-47.416
-47.792
-48.147
-48.48
-48.791
-49.077
-49.338
-49.573
-49.781
-49.962
-50.115
-50.24
-50.336
-50.403
-50.441
-50.449
-50.429
-50.38
-50.302
-50.196
-50.064
-49.905
-49.721
-49.512
-49.281
-49.028
-48.754
-48.461
-48.151
-47.824
-47.483
-47.129
-46.764
-46.389
-46.006
-45.616
-45.221
-44.823
-44.422
-44.019
-43.616
-43.213
-42.811
-42.412
-42.017
-41.625
-41.238
-40.857
-40.482
-40.114
-39.754
-39.402
-39.059
-38.725
-38.401
-38.087
-37.784
-37.492
-37.213
-36.947
-36.695
-36.457
-36.233
-36.025
-35.833
-35.657
-35.498
-35.356
-35.233
-35.129
-35.046
-34.983
-34.942
-34.925
-34.931
-34.962
-35.02
-35.103
-35.214
-35.354
-35.521
-35.717
-35.943
-36.198
-36.482
-36.795
-37.136
-37.503
-37.897
-38.314
-38.753
-39.211
-39.687
-40.178
-40.682
-41.195
-41.714
-42.238
-42.762
-43.283
-43.797
-44.301
-44.79
-45.26
-45.706
-46.124
-46.51
-46.858
-47.166
-47.428
-47.64
-47.797
-47.897
-47.934
-47.905
-47.808
-47.638
-47.395
-47.075
-46.679
-46.206
-45.656
-45.03
-44.329
-43.556
-42.713
-41.803
-40.829
-39.796
-38.706
-37.567
-36.382
-35.159
-33.904
-32.628
-31.339
-30.046
-28.76
-27.492
-26.252
-25.05
-23.898
-22.802
-21.774
-20.821
-19.954
-19.182
-18.516
-17.963
-17.531
-17.227
-17.057
-17.025
-17.133
-17.381
-17.766
-18.289
-18.952
-19.763
-20.727
-21.845
-23.115
-24.531
-26.087
-27.773
-29.57
-31.453
-33.392
-35.359
-37.328
-39.279
-41.189
-43.029
-44.761
-46.339
-47.725
-48.889
-49.808
-50.471
-50.87
-51.008
-50.909
-50.609
-50.156
-49.614
-49.043
-48.5
-48.054
-47.76
-47.708
-48.029
-48.8
-50.016
-51.582
-53.306
-54.995
-56.509
-57.639
-58.091
-57.67
-56.348
-54.398
-52.323
-50.571
-49.549
-49.535
-50.715
-53.244
-56.396
-58.898
-59.909
-58.046
-52.945
-44.706
-30.858
-9.657
20.601
61.437
109.817
162.317
215.718
266.108
312.193
352.602
385.281
408.907
421.711
422.741
411.941
389.438
356.371
314.346
265.689
213.863
161.241
109.409
59.589
11.545
-32.696
-69.184
-94.7
-105.67
-102.492
-89.729
-71.89
-53.895
-38.153
-24.046
-11.471
-0.498
8.149
13.068
14.083
11.779
7.064
1.156
-5.073
-10.833
-15.334
-18.202
-19.349
-18.904
-17.284
-14.927
-12.245
-9.78
-7.944
-6.905
-6.732
-7.34
-8.533
-10.138
-11.932
-13.624
-15.033
-16.073
-16.703
-16.958
-16.873
-16.457
-15.751
-14.813
-13.678
-12.377
-10.927
-9.331
-7.612
-5.805
-3.95
-2.087
-0.244
1.568
3.338
5.06
6.734
8.361
9.951
11.516
13.065
14.607
16.147
17.692
19.253
20.843
22.472
24.155
25.904
27.727
29.635
31.638
33.74
35.95
38.275
40.721
43.296
46.006
48.857
51.857
55.016
58.341
61.843
65.528
69.396
73.444
77.669
82.06
86.606
91.289
96.083
100.966
105.919
110.927
115.976
121.05
126.125
131.181
136.197
141.157
146.054
150.884
155.644
160.342
164.994
169.625
174.267
178.941
183.648
188.387
193.138
197.887
202.618
207.308
211.928
216.444
220.811
224.981
228.905
232.517
235.737
238.479
240.646
242.161
242.972
243.04
242.344
240.87
238.605
235.55
231.717
227.12
221.778
215.713
208.945
201.515
193.48
184.91
175.896
166.513
156.826
146.894
136.767
126.495
116.134
105.734
95.345
85.027
74.844
64.875
55.212
45.934
37.106
28.779
20.979
13.733
7.067
1.003
-4.443
-9.26
-13.454
-17.034
-20.01
-22.414
-24.289
-25.703
-26.748
-27.509
-28.063
-28.475
-28.789
-29.05
-29.296
-29.558
-29.86
-30.217
-30.636
-31.124
-31.691
-32.332
-33.035
-33.769
-34.486
-35.147
-35.719
-36.179
-36.516
-36.72
-36.786
-36.716
-36.522
-36.215
-35.811
-35.322
-34.754
-34.119
-33.434
-32.719
-32.003
-31.308
-30.65
-30.041
-29.491
-29.005
-28.588
-28.24
-27.953
-27.724
-27.546
-27.417
-27.336
-27.3
-27.304
-27.344
-27.415
-27.511
-27.629
-27.767
-27.92
-28.086
-28.262
-28.446
-28.64
-28.842
-29.05
-29.262
-29.478
-29.693
-29.908
-30.12
-30.326
-30.524
-30.713
-30.891
-31.057
-31.21
-31.348
-31.471
-31.579
-31.669
-31.743
-31.799
-31.837
-31.858
-31.86
-31.844
-31.81
-31.758
-31.689
-31.603
-31.501
-31.383
-31.25
-31.102
-30.94
-30.765
-30.576
-30.375
-30.163
-29.94
-29.707
-29.464
-29.214
-28.958
-28.696
-28.431
-28.164
-27.897
-27.632
-27.371
-27.116
-26.87
-26.634
-26.411
-26.204
-26.016
-25.848
-25.702
-25.582
-25.489
-25.424
-25.39
-25.388
-25.419
-25.485
-25.587
-25.726
-25.904
-26.121
-26.379
-26.678
-27.019
-27.402
-27.827
-28.295
-28.805
-29.357
-29.949
-30.581
-31.251
-31.957
-32.697
-33.469
-34.269
-35.095
-35.943
-36.809
-37.69
-38.582
-39.48
-40.381
-41.28
-42.175
-43.061
-43.935
-44.793
-45.632
-46.448
-47.239
-48.001
-48.731
-49.427
-50.085
-50.702
-51.277
-51.807
-52.291
-52.726
-53.111
-53.446
-53.729
-53.96
-54.14
-54.267
-54.344
-54.371
-54.35
-54.283
-54.174
-54.025
-53.839
-53.621
-53.375
-53.103
-52.811
-52.501
-52.177
-51.844
-51.504
-51.162
-50.82
-50.484
-50.156
-49.84
-49.541
-49.262
-49.006
-48.776
-48.576
-48.409
-48.278
-48.185
-48.133
-48.125
-48.162
-48.248
-48.384
-48.57
-48.807
-49.095
-49.432
-49.817
-50.248
-50.722
-51.234
-51.781
-52.362
-52.972
-53.609
-54.268
-54.949
-55.649
-56.366
-57.095
-57.832
-58.571
-59.306
-60.031
-60.74
-61.425
-62.08
-62.696
-63.27
-63.798
-64.275
-64.694
-65.048
-65.325
-65.519
-65.626
-65.645
-65.573
-65.412
-65.169
-64.857
-64.496
-64.101
-63.679
-63.233
-62.755
-62.244
-61.695
-61.105
-60.469
-59.782
-59.034
-58.224
-57.355
-56.419
-55.4
-54.272
-52.991
-51.529
-49.882
-48.052
-46.058
-43.926
-41.683
-39.374
-37.059
-34.788
-32.608
-30.557
-28.654
-26.939
-25.456
-24.263
-23.435
-23.03
-23.078
-23.603
-24.612
-26.091
-28.018
-30.341
-32.981
-35.868
-38.935
-42.127
-45.406
-48.725
-52.026
-55.249
-58.32
-61.17
-63.742
-65.983
-67.85
-69.328
-70.408
-71.111
-71.498
-71.631
-71.576
-71.399
-71.135
-70.82
-70.502
-70.235
-70.081
-70.105
-70.347
-70.859
-71.729
-72.996
-74.637
-76.542
-78.482
-80.23
-81.62
-82.452
-82.464
-81.467
-79.411
-76.505
-73.184
-69.793
-66.569
-63.757
-61.688
-60.752
-60.528
-59.522
-56.315
-49.573
-39.817
-29.608
-19.291
-8.13
6.766
31.643
68.832
118.813
180.791
247.526
312.566
368.506
404.735
418.015
408.128
378.277
339.354
297.565
256.04
217.038
176.795
133.868
89.299
42.267
-6.281
-54.508
-101.124
-141.658
-169.135
-179.947
-172.256
-147.451
-113.616
-77.606
-46.09
-26.335
-18.806
-22.196
-33.396
-45.233
-54.226
-59.391
-60.757
-61.29
-62.403
-63.505
-63.976
-62.679
-59.325
-54.744
-49.809
-45.262
-41.452
-38.412
-36.179
-34.814
-34.326
-34.609
-35.471
-36.692
-38.321
-40.678
-43.897
-47.895
-52.417
-57.031
-61.388
-65.28
-68.266
-69.683
-69.174
-66.698
-62.544
-57.363
-51.673
-45.791
-40.164
-35.339
-31.645
-29.21
-27.869
-27.141
-26.695
-26.383
-26.032
-25.484
-24.629
-23.391
-21.831
-20.138
-18.409
-16.649
-14.844
-12.96
-10.982
-8.908
-6.706
-4.337
-1.827
0.738
3.335
6.005
8.82
11.87
15.113
18.462
22.041
25.971
30.156
34.467
38.551
42.437
47.015
52.368
57.901
62.107
62.424
59.479
56.139
55.545
61.681
73.544
86.872
99.371
108.003
113.529
119.719
126.241
133.207
139.711
142.901
144.3
145.548
147.592
152.318
158.7
165.387
171.972
177.677
182.835
187.939
192.918
197.819
202.543
206.927
210.933
214.487
217.48
219.826
221.462
222.325
222.288
221.292
219.344
216.437
212.644
207.973
202.274
195.533
187.87
179.292
169.787
159.336
147.78
135.248
122.236
109.062
95.923
83.152
71.059
60.044
50.679
43.081
36.886
31.868
27.883
24.735
22.303
20.321
18.327
16.208
14.201
12.438
10.987
9.842
8.869
8.032
7.442
7.072
6.749
6.346
5.757
4.936
3.943
2.809
1.508
0.051
-1.517
-3.155
-4.808
-6.406
-7.896
-9.231
-10.365
-11.28
-11.994
-12.507
-12.785
-12.879
-12.953
-13.067
-13.19
-13.351
-13.418
-13.677
-15.07
-17.476
-20.055
-21.48
-19.164
-13.143
-6.066
-0.527
-0.208
-5.519
-12.941
-19.738
-23.014
-22.12
-19.672
-17.321
-16.129
-16.464
-17.247
-17.954
-18.633
-19.244
-19.932
-20.748
-21.571
-22.399
-23.298
-24.272
-25.282
-26.308
-27.367
-28.432
-29.381
-30.084
-30.482
-30.621
-30.658
-30.315
-28.798
-25.762
-21.746
-18.767
-19.768
-26.182
-36.556
-46.947
-52.716
-50.808
-42.542
-31.797
-22.006
-16.86
-16.03
-17.268
-20.663
-23.875
-26.89
-31.233
-34.254
-36.02
-36.093
-32.481
-27.855
-23.55
-20.173
-19.643
-20.591
-21.736
-22.891
-23.161
-22.933
-22.812
-22.686
-22.642
-22.645
-22.579
-22.527
-22.565
-22.688
-22.888
-23.17
-23.53
-23.961
-24.459
-25.011
-25.6
-26.224
-26.888
-27.585
-28.311
-29.059
-29.824
-30.602
-31.386
-32.171
-32.949
-33.714
-34.458
-35.174
-35.858
-36.501
-37.098
-37.644
-38.131
-38.556
-38.913
-39.198
-39.408
-39.538
-39.587
-39.551
-39.431
-39.225
-38.933
-38.556
-38.095
-37.553
-36.932
-36.237
-35.469
-34.636
-33.741
-32.792
-31.793
-30.753
-29.677
-28.575
-27.454
-26.322
-25.187
-24.059
-22.945
-21.855
-20.796
-19.778
-18.808
-17.895
-17.045
-16.266
-15.564
-14.946
-14.417
-13.981
-13.643
-13.407
-13.275
-13.25
-13.333
-13.525
-13.825
-14.234
-14.749
-15.369
-16.091
-16.911
-17.826
-18.831
-19.923
-21.096
-22.345
-23.664
-25.048
-26.491
-27.984
-29.522
-31.098
-32.704
-34.334
-35.981
-37.639
-39.301
-40.961
-42.615
-44.257
-45.882
-47.485
-49.063
-50.613
-52.13
-53.612
-55.057
-56.465
-57.833
-59.162
-60.452
-61.703
-62.915
-64.087
-65.222
-66.318
-67.375
-68.393
-69.371
-70.312
-71.215
-72.082
-72.913
-73.713
-74.483
-75.225
-75.943
-76.637
-77.306
-77.95
-78.566
-79.154
-79.708
-80.227
-80.708
-81.147
-81.545
-81.899
-82.209
-82.469
-82.675
-82.816
-82.889
-82.89
-82.815
-82.667
-82.448
-82.167
-81.839
-81.48
-81.101
-80.706
-80.295
-79.858
-79.388
-78.878
-78.315
-77.699
-77.026
-76.29
-75.491
-74.627
-73.686
-72.651
-71.492
-70.17
-68.67
-66.985
-65.121
-63.105
-60.966
-58.741
-56.486
-54.242
-52.049
-49.944
-47.954
-46.103
-44.434
-42.991
-41.834
-41.035
-40.637
-40.667
-41.147
-42.068
-43.42
-45.174
-47.269
-49.654
-52.289
-55.129
-58.143
-61.296
-64.524
-67.765
-70.952
-74.003
-76.863
-79.483
-81.812
-83.819
-85.479
-86.779
-87.746
-88.405
-88.767
-88.859
-88.713
-88.374
-87.929
-87.455
-87.016
-86.687
-86.536
-86.628
-87.043
-87.843
-89.065
-90.751
-92.938
-95.607
-98.69
-102.035
-105.387
-108.481
-111.078
-112.902
-113.63
-113.059
-111.153
-108.064
-104.185
-99.89
-95.343
-90.738
-86.398
-82.441
-78.639
-74.416
-68.693
-60.328
-48.614
-32.792
-11.766
15.229
48.403
87.45
130.595
175.628
221.361
265.683
306.838
343.246
370.803
386.67
388.408
373.675
344.471
303.503
254.043
200.805
145.939
91.243
39.363
-7.667
-47.137
-76.916
-96.615
-106.781
-108.559
-103.187
-92.313
-78.007
-62.463
-47.845
-35.504
-25.902
-19.361
-16.19
-16.135
-18.544
-22.382
-26.274
-29.44
-31.685
-32.79
-32.532
-30.912
-28.081
-24.53
-21.062
-18.12
-15.81
-14.194
-13.255
-12.954
-13.254
-13.942
-14.653
-15.129
-15.22
-14.844
-14.004
-12.683
-10.835
-8.438
-5.494
-2.011
1.981
6.447
11.36
16.688
22.378
28.366
34.565
40.877
47.219
53.54
59.803
65.975
72.009
77.838
83.387
88.603
93.458
97.939
102.042
105.748
109.053
111.973
114.534
116.785
118.751
120.428
121.811
122.907
123.735
124.346
124.797
125.135
125.405
125.652
125.92
126.274
126.772
127.464
128.402
129.624
131.179
133.142
135.569
138.502
141.971
145.972
150.495
155.523
161.025
166.962
173.29
179.943
186.851
193.938
201.114
208.298
215.412
222.371
229.11
235.578
241.738
247.575
253.086
258.279
263.157
267.729
272.001
275.986
279.709
283.196
286.479
289.583
292.519
295.292
297.886
300.269
302.382
304.154
305.511
306.368
306.66
306.334
305.339
303.629
301.157
297.878
293.751
288.75
282.854
276.053
268.368
259.844
250.565
240.626
230.121
219.158
207.834
196.24
184.473
172.632
160.811
149.114
137.65
126.518
115.821
105.66
96.101
87.187
78.932
71.334
64.391
58.094
52.421
47.347
42.841
38.861
35.364
32.292
29.565
27.109
24.847
22.7
20.612
18.542
16.46
14.348
12.193
9.983
7.718
5.403
3.04
0.64
-1.782
-4.205
-6.586
-8.891
-11.092
-13.157
-15.074
-16.832
-18.425
-19.856
-21.135
-22.272
-23.28
-24.173
-24.963
-25.662
-26.288
-26.858
-27.398
-27.929
-28.464
-29.015
-29.592
-30.199
-30.84
-31.515
-32.217
-32.941
-33.683
-34.436
-35.2
-35.968
-36.736
-37.497
-38.245
-38.975
-39.682
-40.363
-41.015
-41.635
-42.22
-42.769
-43.283
-43.761
-44.202
-44.606
-44.972
-45.299
-45.587
-45.837
-46.049
-46.222
-46.36
-46.462
-46.532
-46.571
-46.582
-46.568
-46.531
-46.474
-46.402
-46.317
-46.223
-46.124
-46.022
-45.922
-45.827
-45.74
-45.664
-45.602
-45.556
-45.529
-45.523
-45.54
-45.582
-45.65
-45.745
-45.868
-46.02
-46.201
-46.411
-46.651
-46.919
-47.215
-47.539
-47.889
-48.265
-48.664
-49.086
-49.529
-49.991
-50.47
-50.965
-51.472
-51.991
-52.519
-53.053
-53.591
-54.132
-54.671
-55.208
-55.74
-56.264
-56.779
-57.281
-57.769
-58.241
-58.694
-59.126
-59.534
-59.918
-60.274
-60.602
-60.898
-61.161
-61.388
-61.579
-61.729
-61.837
-61.901
-61.917
-61.884
-61.798
-61.658
-61.46
-61.201
-60.88
-60.492
-60.037
-59.511
-58.911
-58.235
-57.481
-56.647
-55.729
-54.727
-53.639
-52.463
-51.198
-49.844
-48.398
-46.862
-45.234
-43.515
-41.706
-39.808
-37.821
-35.748
-33.591
-31.353
-29.036
-26.645
-24.185
-21.659
-19.073
-16.432
-13.743
-11.011
-8.244
-5.448
-2.63
0.201
3.037
5.872
8.696
11.501
14.278
17.02
19.718
22.365
24.952
27.471
29.916
32.278
34.551
36.729
38.804
40.771
42.625
44.362
45.976
47.464
48.824
50.054
51.151
52.114
52.944
53.64
54.204
54.635
54.937
55.112
55.163
55.094
54.909
54.613
54.21
53.706
53.106
52.415
51.64
50.785
49.855
48.858
47.798
46.681
45.514
44.302
43.051
41.766
40.452
39.115
37.757
36.383
34.996
33.599
32.194
30.785
29.373
27.959
26.546
25.133
23.721
22.31
20.899
19.487
18.073
16.656
15.233
13.805
12.371
10.929
9.48
8.024
6.562
5.094
3.618
2.135
0.644
-0.856
-2.364
-3.883
-5.414
-6.955
-8.503
-10.056
-11.609
-13.159
-14.699
-16.225
-17.73
-19.209
-20.658
-22.074
-23.454
-24.791
-26.077
-27.3
-28.454
-29.535
-30.54
-31.466
-32.316
-33.095
-33.815
-34.497
-35.155
-35.794
-36.415
-37.008
-37.566
-38.087
-38.563
-38.987
-39.353
-39.652
-39.877
-40.033
-40.109
-40.089
-39.943
-39.624
-39.104
-38.377
-37.446
-36.332
-35.061
-33.664
-32.187
-30.69
-29.226
-27.845
-26.586
-25.471
-24.543
-23.851
-23.455
-23.437
-23.854
-24.736
-26.11
-27.983
-30.344
-33.169
-36.409
-39.981
-43.816
-47.849
-52.018
-56.279
-60.573
-64.834
-68.998
-72.989
-76.742
-80.205
-83.324
-86.053
-88.375
-90.284
-91.797
-92.97
-93.858
-94.519
-95.033
-95.462
-95.857
-96.276
-96.77
-97.39
-98.2
-99.254
-100.598
-102.295
-104.411
-106.962
-109.897
-113.061
-116.201
-119.035
-121.295
-122.704
-122.938
-121.788
-119.29
-115.711
-111.57
-107.461
-103.787
-100.889
-99.217
-98.951
-99.721
-100.71
-100.627
-97.96
-91.467
-80.026
-62.336
-37.428
-5.675
31.854
74.112
119.06
165.744
213.063
256.52
292.399
316.935
326.443
322.095
305.36
277.498
241.306
197.708
148.079
95.092
40.851
-11.781
-59.824
-101.1
-133.855
-157.406
-172.105
-178.788
-178.576
-172.769
-162.972
-151.096
-139.159
-128.69
-120.375
-114.439
-110.888
-109.658
-110.62
-113.218
-116.457
-119.481
-121.927
-123.729
-124.977
-125.674
-125.643
-124.953
-124.022
-123.327
-123.149
-123.537
-124.378
-125.592
-127.236
-129.313
-131.669
-134.044
-136.192
-137.993
-139.433
-140.532
-141.288
-141.672
-141.685
-141.375
-140.814
-140.059
-139.15
-138.101
-136.926
-135.658
-134.338
-133.014
-131.729
-130.51
-129.371
-128.322
-127.368
-126.514
-125.762
-125.101
-124.517
-123.997
-123.527
-123.1
-122.709
-122.342
-121.982
-121.614
-121.218
-120.784
-120.3
-119.754
-119.135
-118.431
-117.631
-116.724
-115.704
-114.559
-113.277
-111.846
-110.254
-108.493
-106.554
-104.429
-102.113
-99.597
-96.874
-93.943
-90.807
-87.469
-83.938
-80.224
-76.342
-72.311
-68.158
-63.906
-59.577
-55.193
-50.772
-46.34
-41.919
-37.531
-33.198
-28.938
-24.758
-20.663
-16.651
-12.712
-8.834
-5.002
-1.193
2.602
6.392
10.18
13.962
17.737
21.505
25.253
28.976
32.658
36.263
39.748
43.05
46.085
48.78
51.062
52.851
54.09
54.725
54.7
53.982
52.533
50.318
47.311
43.475
38.785
33.254
26.918
19.85
12.159
3.945
-4.695
-13.647
-22.814
-32.087
-41.349
-50.499
-59.434
-68.035
-76.177
-83.711
-90.484
-96.393
-101.366
-105.367
-108.401
-110.464
-111.557
-111.704
-110.928
-109.268
-106.779
-103.501
-99.483
-94.804
-89.561
-83.885
-77.92
-71.776
-65.536
-59.263
-52.995
-46.776
-40.646
-34.625
-28.727
-22.963
-17.34
-11.872
-6.577
-1.449
3.533
8.407
13.226
18.017
22.793
27.56
32.311
37.039
41.733
46.37
50.919
55.355
59.655
63.801
67.782
71.578
75.164
78.512
81.591
84.38
86.866
89.038
90.892
92.426
93.643
94.554
95.174
95.516
95.592
95.416
94.996
94.348
93.486
92.428
91.188
89.784
88.232
86.547
84.746
82.844
80.857
78.796
76.675
74.507
72.304
70.081
67.849
65.62
63.405
61.215
59.061
56.949
54.888
52.884
50.942
49.067
47.261
45.528
43.868
42.284
40.774
39.337
37.971
36.675
35.444
34.276
33.165
32.109
31.101
30.137
29.211
28.319
27.455
26.613
25.788
24.974
24.166
23.36
22.55
21.732
20.905
20.064
19.209
18.339
17.453
16.554
15.641
14.719
13.788
12.852
11.914
10.978
10.048
9.129
8.227
7.35
6.506
5.705
4.958
4.275
3.666
3.143
2.713
2.387
2.175
2.084
2.121
2.298
2.623
3.113
3.778
4.624
5.654
6.867
8.255
9.814
11.537
13.412
15.431
17.59
19.891
22.345
24.965
27.752
30.705
33.809
37.052
40.432
43.947
47.598
51.394
55.341
59.449
63.739
68.222
72.887
77.712
82.647
87.633
92.628
97.597
102.511
107.352
112.084
116.673
121.091
125.299
129.257
132.919
136.22
139.108
141.562
143.581
145.193
146.447
147.372
147.993
148.333
148.405
148.231
147.833
147.22
146.408
145.422
144.294
143.077
141.816
140.532
139.233
137.904
136.517
135.057
133.513
131.872
130.131
128.286
126.339
124.301
122.187
120.002
117.746
115.408
112.98
110.463
107.866
105.205
102.501
99.773
97.035
94.305
91.597
88.919
86.277
83.67
81.094
78.547
76.031
73.548
71.101
68.691
66.317
63.976
61.664
59.38
57.117
54.872
52.638
50.412
48.192
45.976
43.763
41.554
39.346
37.14
34.933
32.724
30.512
28.295
26.072
23.84
21.601
19.354
17.1
14.84
12.575
10.308
8.041
5.777
3.518
1.269
-0.967
-3.186
-5.383
-7.556
-9.698
-11.805
-13.873
-15.895
-17.867
-19.785
-21.644
-23.44
-25.169
-26.827
-28.411
-29.919
-31.347
-32.694
-33.957
-35.134
-36.225
-37.227
-38.142
-38.97
-39.712
-40.369
-40.945
-41.443
-41.867
-42.222
-42.514
-42.747
-42.928
-43.066
-43.167
-43.241
-43.296
-43.344
-43.395
-43.462
-43.556
-43.69
-43.876
-44.125
-44.451
-44.864
-45.375
-45.992
-46.725
-47.584
-48.579
-49.719
-51.011
-52.46
-54.071
-55.85
-57.799
-59.921
-62.214
-64.671
-67.288
-70.066
-73.007
-76.115
-79.385
-82.811
-86.381
-90.087
-93.916
-97.851
-101.865
-105.927
-110.007
-114.076
-118.113
-122.1
-126.012
-129.817
-133.476
-136.941
-140.176
-143.162
-145.879
-148.317
-150.49
-152.386
-154.004
-155.431
-156.738
-158.001
-159.325
-160.701
-162.089
-163.61
-165.405
-167.439
-169.666
-171.864
-173.66
-175.005
-175.918
-176.166
-175.519
-173.933
-171.457
-168.618
-166.297
-164.933
-164.814
-166.298
-169.573
-174.622
-181.131
-187.982
-193.42
-195.841
-193.712
-185.662
-170.561
-147.492
-116.097
-76.979
-31.668
17.782
69.014
119.58
166.799
207.845
240.227
262.018
272.139
270.143
255.9
229.887
193.291
148.37
98.339
45.662
-7.899
-61.045
-113.535
-162.957
-205.019
-236.27
-252.888
-254.611
-245.541
-229.767
-212.127
-195.531
-179.756
-164.982
-151.556
-140.475
-133.515
-131.161
-132.89
-137.765
-144.356
-151.64
-158.807
-164.718
-168.649
-170.342
-169.747
-167.223
-163.315
-158.406
-152.995
-147.762
-143.091
-139.167
-136.069
-133.645
-131.713
-130.144
-128.707
-127.116
-125.216
-122.929
-120.23
-117.183
-113.824
-110.17
-106.271
-102.184
-97.95
-93.605
-89.167
-84.641
-80.052
-75.436
-70.835
-66.296
-61.848
-57.51
-53.299
-49.226
-45.299
-41.523
-37.892
-34.402
-31.045
-27.816
-24.71
-21.72
-18.834
-16.04
-13.319
-10.654
-8.028
-5.427
-2.836
-0.241
2.369
5.008
7.687
10.413
13.199
16.057
19
22.041
25.192
28.464
31.869
35.416
39.112
42.962
46.968
51.129
55.444
59.91
64.527
69.294
74.206
79.255
84.429
89.715
95.094
100.545
106.034
111.528
116.998
122.419
127.773
133.049
138.232
143.309
148.267
153.089
157.76
162.268
166.592
170.713
174.622
178.318
181.822
185.165
188.357
191.406
194.311
197.057
199.638
202.036
204.217
206.15
207.81
209.173
210.236
210.998
211.444
211.543
211.242
210.471
209.188
207.352
204.923
201.871
198.165
193.801
188.821
183.274
177.208
170.666
163.676
156.271
148.51
140.474
132.263
123.994
115.776
107.729
99.989
92.705
86.018
80.033
74.8
70.355
66.728
63.951
62.057
61.066
60.963
61.719
63.292
65.629
68.664
72.309
76.445
80.931
85.631
90.443
95.295
100.135
104.911
109.571
114.072
118.384
122.498
126.408
130.106
133.585
136.852
139.932
142.869
145.727
148.558
151.393
154.253
157.147
160.081
163.06
166.08
169.124
172.173
175.211
178.226
181.213
184.158
187.041
189.837
192.514
195.052
197.436
199.654
201.7
203.571
205.266
206.789
208.153
209.367
210.439
211.374
212.177
212.852
213.408
213.851
214.188
214.426
214.568
214.62
214.585
214.468
214.271
213.994
213.639
213.205
212.694
212.107
211.447
210.713
209.909
209.034
208.091
207.08
206.002
204.858
203.647
202.368
201.021
199.606
198.121
196.566
194.94
193.243
191.475
189.635
187.724
185.744
183.693
181.575
179.391
177.142
174.831
172.46
170.032
167.55
165.018
162.438
159.815
157.153
154.455
151.725
148.966
146.184
143.381
140.561
137.73
134.89
132.047
129.204
126.366
123.537
120.722
117.925
115.149
112.399
109.677
106.987
104.332
101.715
99.137
96.601
94.109
91.662
89.26
86.905
84.596
82.333
80.117
77.945
75.818
73.734
71.692
69.69
67.728
65.804
63.916
62.063
60.243
58.453
56.693
54.961
53.254
51.571
49.909
48.268
46.645
45.039
43.448
41.87
40.305
38.751
37.208
35.673
34.148
32.63
31.121
29.62
28.127
26.643
25.169
23.705
22.252
20.811
19.384
17.97
16.572
15.191
13.826
12.48
11.154
9.847
8.561
7.297
6.055
4.834
3.636
2.461
1.307
0.176
-0.933
-2.021
-3.088
-4.136
-5.165
-6.176
-7.172
-8.153
-9.122
-10.081
-11.032
-11.978
-12.921
-13.864
-14.81
-15.762
-16.723
-17.696
-18.685
-19.692
-20.72
-21.772
-22.852
-23.962
-25.103
-26.278
-27.49
-28.738
-30.026
-31.353
-32.721
-34.129
-35.579
-37.07
-38.602
-40.173
-41.783
-43.43
-45.112
-46.827
-48.573
-50.345
-52.142
-53.96
-55.794
-57.64
-59.495
-61.354
-63.211
-65.062
-66.902
-68.725
-70.527
-72.301
-74.042
-75.746
-77.407
-79.021
-80.585
-82.093
-83.542
-84.93
-86.252
-87.507
-88.694
-89.809
-90.852
-91.823
-92.721
-93.548
-94.305
-94.994
-95.617
-96.178
-96.68
-97.129
-97.528
-97.884
-98.203
-98.491
-98.757
-99.008
-99.252
-99.499
-99.759
-100.043
-100.362
-100.727
-101.151
-101.645
-102.22
-102.887
-103.656
-104.537
-105.536
-106.662
-107.922
-109.323
-110.875
-112.582
-114.45
-116.484
-118.685
-121.057
-123.6
-126.308
-129.177
-132.201
-135.377
-138.71
-142.199
-145.841
-149.631
-153.559
-157.612
-161.773
-166.02
-170.319
-174.635
-178.938
-183.197
-187.393
-191.505
-195.505
-199.358
-203.024
-206.461
-209.642
-212.544
-215.146
-217.451
-219.47
-221.235
-222.798
-224.206
-225.502
-226.733
-227.937
-229.156
-230.444
-231.856
-233.48
-235.447
-237.805
-240.525
-243.528
-246.592
-249.466
-251.933
-253.665
-254.268
-253.607
-251.744
-248.888
-245.715
-242.969
-241.172
-240.986
-242.508
-244.852
-247.184
-248.875
-250.194
-252.227
-254.391
-253.411
-243.265
-218.374
-177.581
-124.142
-65.044
-6.009
51.176
105.422
155.256
196.095
221.328
227.309
214.418
187.071
150.726
109.083
63.695
14.354
-38.393
-92.992
-146.998
-196.796
-239.678
-274.103
-299.57
-317.225
-327.702
-330.633
-325.779
-312.687
-293.516
-272.903
-255.12
-244.447
-241.675
-244.177
-249.537
-254.518
-257.731
-260.318
-262.603
-265.129
-267.985
-269.832
-270.104
-268.951
-266.627
-263.971
-261.742
-260.12
-259.22
-259.173
-259.948
-261.508
-263.779
-266.494
-269.327
-272.08
-274.609
-276.827
-278.735
-280.317
-281.552
-282.456
-283.066
-283.414
-283.532
-283.431
-283.101
-282.535
-281.736
-280.718
-279.507
-278.134
-276.62
-274.97
-273.178
-271.23
-269.11
-266.814
-264.339
-261.677
-258.83
-255.811
-252.649
-249.393
-246.083
-242.74
-239.377
-235.987
-232.562
-229.106
-225.622
-222.119
-218.603
-215.059
-211.462
-207.781
-203.961
-199.931
-195.595
-190.825
-185.497
-179.516
-172.806
-165.313
-157.005
-147.833
-137.751
-126.718
-114.685
-101.628
-87.547
-72.448
-56.369
-39.388
-21.614
-3.207
15.652
34.807
54.111
73.431
92.652
111.635
130.228
148.279
165.617
182.072
197.499
211.75
224.697
236.259
246.396
255.115
262.473
268.517
273.292
276.845
279.212
280.449
280.641
279.88
278.279
275.966
273.061
269.69
265.984
262.038
257.908
253.617
249.136
244.434
239.496
234.311
228.883
223.215
217.298
211.12
204.67
197.935
190.909
183.59
175.966
168.052
159.903
151.601
143.277
135.068
127.081
119.412
112.137
105.319
99.019
93.292
88.17
83.675
79.816
76.596
74.022
72.079
70.718
69.865
69.406
69.227
69.239
69.369
69.556
69.75
69.903
69.981
69.966
69.855
69.647
69.34
68.927
68.416
67.828
67.204
66.601
66.069
65.641
65.342
65.188
65.192
65.367
65.712
66.217
66.868
67.653
68.567
69.602
70.748
71.985
73.293
74.647
76.032
77.44
78.859
80.28
81.693
83.087
84.458
85.798
87.091
88.32
89.468
90.524
91.495
92.384
93.194
93.926
94.576
95.143
95.641
96.08
96.469
96.819
97.146
97.484
97.891
98.427
99.142
100.071
101.225
102.609
104.234
106.1
108.205
110.54
113.07
115.768
118.609
121.556
124.56
127.555
130.441
133.107
135.45
137.383
138.85
139.812
140.23
140.054
139.201
137.626
135.346
132.408
128.931
125.063
120.96
116.868
113.146
110.041
107.689
106.155
105.142
104.187
102.817
100.294
96.527
92.656
90.013
89.903
91.455
90.765
84.557
71.623
57.818
55.825
77.428
131.098
212.511
