Name
Date of Birth,"20 Jul 2000"
Recorded Date,2025-07-01 22:21:31 +0200
Classification,Poor Recording
Symptoms,
Software Version,1.90
Device,"Watch7,10"
Sample Rate,512 hertz


Lead,Lead I
Unit,µV

198.908
264.178
317.401
360.829
398.518
435.06
464.628
479.449
472.397
434.69
374.97
307.583
244.335
200.958
177.022
161.88
148.28
125.923
92.856
56.688
21.553
-10.467
-42.11
-81.5
-131.586
-186.744
-233.638
-258.001
-253.647
-225.267
-186.86
-151.639
-125.691
-108.807
-95.895
-82.756
-68.556
-53.898
-40
-27.411
-16.011
-5.247
6.012
17.991
30.173
41.691
50.384
55.52
59.043
60.813
58.95
50.603
30.2
-0.909
-33.826
-59.745
-69.727
-64.839
-54.29
-44.804
-42.039
-44.213
-48.628
-59.578
-82.334
-125.458
-194.483
-287.425
-398.203
-515.741
-624.612
-707.189
-753.492
-762.744
-743.398
-713.575
-680.805
-640.842
-590.027
-523.573
-452.442
-402.076
-385.214
-404.824
-449.829
-498.056
-542.244
-581.406
-615.259
-642.012
-647.083
-619.041
-555.13
-461.528
-355.508
-248.315
-146.643
-56.214
23.262
87.935
136.04
175.248
209.366
236.73
245.292
207.009
99.222
-81.326
-314.982
-556.156
-756.154
-886.23
-940.696
-940.918
-919.645
-894.495
-870.237
-837.001
-778.038
-693.724
-591.723
-484.457
-386.524
-297.753
-216.009
-140.107
-66.54
0.147
57.995
110.824
157.548
198.945
233.498
251.978
255.696
254.578
261.985
298.956
371.223
463.17
550.317
601.525
599.787
554.736
490.296
435.191
411.362
422.506
458.145
505.831
552.501
586.228
602.915
598.921
573.951
540.302
510.79
496.21
505.121
531.483
563.023
590.286
603.785
602.833
595.168
589.379
595.195
616.176
645.953
672.053
681.41
668.585
638.756
604.675
578.275
565.053
562.815
564.213
563.829
559.256
550.902
541.46
532.151
522.988
514.019
504.897
495.627
486.927
479.178
472.426
466.726
461.853
457.569
453.594
449.342
444.274
438.194
431.095
423.201
413.614
399.97
381.236
358.591
337.128
324.453
323.392
329.933
333.352
321.236
288.965
241.663
191.603
150.731
123.676
107.54
94.866
79.862
60.986
39.554
18.277
-1.436
-19.611
-36.467
-52.252
-66.957
-80.483
-92.911
-104.374
-114.932
-124.587
-133.394
-141.466
-148.933
-155.903
-162.429
-168.515
-174.193
-179.52
-184.516
-189.157
-193.36
-196.979
-199.919
-202.159
-203.709
-204.595
-204.832
-204.471
-203.639
-202.527
-201.289
-199.972
-198.553
-197.03
-195.466
-193.786
-191.671
-188.854
-185.324
-181.302
-177.237
-172.36
-164.784
-154.05
-141.392
-131.771
-132.599
-146.519
-170.809
-197.093
-212.572
-210.165
-190.563
-159.32
-128.666
-109.515
-105.801
-119.072
-143.608
-169.193
-190.198
-201.996
-204.896
-205.02
-205.888
-209.765
-217.118
-225.441
-233.567
-241.647
-250.078
-259.621
-270.483
-282.431
-295.227
-308.306
-320.749
-331.044
-337.436
-338.988
-335.218
-325.833
-311.14
-292.103
-270.715
-250.433
-234.779
-225.773
-225.018
-233.857
-253.047
-283.289
-323.563
-370.28
-419.635
-469.047
-515.943
-558.101
-593.291
-617.93
-629.841
-629.448
-617.499
-594.409
-560.789
-516.863
-463.414
-403.249
-340.268
-277.101
-214.757
-155.31
-97.73
-41.338
9.283
52.769
84.752
100.658
104.039
97.778
89.604
87.772
94.969
114.076
140.561
169.126
197.298
220.638
240.892
260.469
279.063
297.954
316.095
332.094
346.653
360.354
373.759
387.46
401.406
415.209
428.639
441.506
453.517
464.454
474.204
482.66
489.841
495.878
500.855
504.847
507.918
510.05
511.201
511.347
510.49
508.683
506.028
502.607
498.489
493.739
488.417
482.588
476.303
469.577
462.405
454.784
446.733
438.291
429.511
420.44
411.113
401.563
391.817
381.907
371.866
361.719
351.483
341.175
330.812
320.423
310.039
299.687
289.392
279.173
269.051
259.044
249.171
239.446
229.878
220.474
211.243
202.194
193.333
184.669
176.206
167.95
159.905
152.073
144.457
137.056
129.866
122.884
116.104
109.519
103.122
96.903
90.852
84.961
79.22
73.619
68.148
62.796
57.549
52.396
47.324
42.318
37.366
32.453
27.569
22.704
17.848
12.997
8.142
3.279
-1.598
-6.492
-11.408
-16.348
-21.315
-26.312
-31.339
-36.396
-41.478
-46.582
-51.703
-56.833
-61.967
-67.099
-72.223
-77.332
-82.419
-87.476
-92.496
-97.469
-102.383
-107.227
-111.986
-116.642
-121.184
-125.596
-129.869
-133.991
-137.954
-141.751
-145.382
-148.852
-152.165
-155.329
-158.346
-161.222
-163.959
-166.559
-169.022
-171.348
-173.531
-175.566
-177.457
-179.213
-180.847
-182.364
-183.757
-185
-186.075
-186.972
-187.684
-188.209
-188.564
-188.781
-188.923
-189.097
-189.417
-189.993
-190.919
-192.245
-193.997
-196.198
-198.882
-202.112
-205.943
-210.403
-215.529
-221.335
-227.751
-234.711
-242.07
-249.482
-256.591
-263.101
-268.696
-273.365
-277.446
-280.983
-283.994
-286.997
-290.086
-293.032
-296.136
-297.346
-293.878
-286.108
-273.237
-258.483
-248.337
-241.246
-235.193
-223.327
-195.05
-154.648
-114.063
-92.717
-111.819
-174.355
-270.03
-378.411
-477.3
-556.887
-615.819
-659.006
-693.358
-718.957
-732.275
-729.338
-705.28
-663.578
-615.136
-570.252
-540.13
-527.174
-523.462
-521.635
-513.767
-496.99
-475.599
-452.396
-429.382
-406.998
-382.884
-356.242
-327.584
-297.629
-267.691
-238.343
-209.48
-181.043
-152.97
-125.38
-98.378
-71.927
-45.983
-20.454
4.572
28.759
51.844
73.663
94.125
113.233
130.914
146.916
160.989
173.018
182.887
190.38
195.353
197.88
198.122
196.429
192.304
184.335
172.304
157.874
146.802
146.791
161.671
189.996
220.592
238.877
236.714
212.627
179.452
155.651
152.203
175.235
217.346
263.66
305.536
336.556
357.79
376.53
396.096
418.458
443.66
468.796
492.661
515.117
535.707
554.425
570.96
584.512
594.618
601.141
603.978
603.188
598.995
591.589
581.176
568.056
552.48
534.639
514.746
492.943
469.364
444.243
417.852
390.524
362.595
334.291
305.775
277.161
248.486
219.809
191.219
162.765
134.515
106.633
79.329
52.932
27.886
4.562
-16.738
-35.781
-52.445
-66.594
-78.067
-86.752
-92.532
-95.304
-95.026
-91.62
-85.004
-75.269
-62.625
-47.44
-30.324
-11.867
7.402
26.962
46.428
65.473
83.744
100.958
116.887
131.197
143.498
153.378
160.454
164.58
165.804
164.296
160.361
154.616
148.159
141.893
135.987
130.081
123.464
116.61
111.601
109.577
109.06
104.714
90.082
62.02
23.431
-13.652
-36.291
-34.098
-0.416
55.774
120.759
178.344
206.561
199.967
160.306
92.565
16.275
-56.709
-115.877
-145.735
-146.339
-121.87
-81.91
-47.016
-26.758
-21.662
-28.115
-35.835
-40.563
-44.109
-48.053
-54.379
-62.817
-71.57
-79.913
-87.927
-95.799
-103.19
-109.9
-116.224
-122.378
-129.96
-140.168
-151.258
-162.445
-170.907
-173.25
-172.883
-172.057
-174.241
-184.488
-198.935
-214.346
-228.222
-236.336
-241.591
-246.511
-251.298
-257.137
-261.623
-262.344
-259.472
-253.111
-244.361
-235.553
-228.479
-225.375
-229.16
-241.93
-265.123
-298.536
-340.743
-390.786
-446.453
-507.531
-573.806
-639.297
-699.903
-749.551
-783.051
-806.332
-822.904
-836.876
-851.522
-861.15
-866.766
-871.001
-876.451
-889.32
-905.951
-920.873
-930.561
-930.404
-923.089
-911.865
-897.404
-881.451
-863.426
-842.998
-821.371
-799.013
-776.404
-753.913
-731.556
-709.478
-687.847
-666.699
-645.989
-625.663
-605.775
-586.452
-567.773
-549.783
-532.397
-515.417
-498.712
-482.18
-465.746
-449.414
-433.179
-417.036
-401.034
-385.252
-369.772
-354.693
-340.089
-325.989
-312.442
-299.507
-287.261
-275.818
-265.259
-255.626
-246.952
-239.241
-232.486
-226.677
-221.774
-217.705
-214.401
-211.791
-209.808
-208.395
-207.486
-207.004
-206.871
-207.004
-207.325
-207.766
-208.256
-208.724
-209.104
-209.333
-209.355
-209.124
-208.592
-207.711
-206.439
-204.734
-202.562
-199.894
-196.707
-192.979
-188.696
-183.85
-178.44
-172.472
-165.955
-158.902
-151.333
-143.271
-134.746
-125.788
-116.433
-106.72
-96.688
-86.381
-75.843
-65.12
-54.258
-43.305
-32.308
-21.315
-10.373
0.47
11.168
21.678
31.957
41.966
51.668
61.029
70.018
78.61
86.781
94.512
101.786
108.593
114.925
120.78
126.156
131.058
135.493
139.471
143.005
146.11
148.803
151.103
153.031
154.609
155.86
156.811
157.484
157.908
158.108
158.112
157.945
157.636
157.21
156.69
156.101
155.465
154.802
154.129
153.461
152.811
152.189
151.602
151.057
150.555
150.097
149.681
149.301
148.954
148.629
148.318
148.01
147.691
147.35
146.972
146.543
146.046
145.466
144.786
143.991
143.064
141.991
140.756
139.346
137.748
135.953
133.951
131.735
129.299
126.642
123.765
120.677
117.387
113.906
110.248
106.429
102.468
98.389
94.212
89.956
85.645
81.308
76.975
72.684
68.473
64.376
60.437
56.703
53.223
50.048
47.225
44.794
42.801
41.297
40.338
39.986
40.286
41.263
42.937
45.316
48.395
52.16
56.571
61.552
67.045
73
79.376
86.152
93.288
100.715
108.381
116.234
124.251
132.455
140.882
149.583
158.661
168.255
178.529
189.69
201.893
215.233
229.786
245.58
262.65
281.049
300.773
321.783
343.984
367.201
391.196
415.683
440.252
464.39
487.576
509.262
528.955
546.254
560.76
572.13
580.05
584.235
584.464
580.581
572.497
560.221
543.895
523.765
500.26
473.971
445.49
415.433
384.413
352.994
321.772
291.346
262.24
234.916
209.81
187.326
167.817
151.563
138.699
129.23
123.012
119.76
119.181
120.96
124.729
130.109
136.67
143.937
151.52
159.106
166.368
172.976
178.629
183.055
186.086
187.659
187.764
186.455
183.798
179.872
174.815
168.795
162.015
154.716
147.072
139.203
131.241
123.321
115.557
108.056
100.871
94
87.443
81.195
75.239
69.561
64.124
58.876
53.763
48.724
43.727
38.778
33.887
29.072
24.362
19.784
15.378
11.213
7.355
3.866
0.825
-1.705
-3.676
-5.033
-5.725
-5.727
-5.03
-3.665
-1.705
0.802
3.837
7.398
11.514
16.202
21.468
27.333
33.819
40.945
48.751
57.245
66.407
76.271
86.899
98.405
110.985
124.741
139.68
155.766
172.887
190.894
209.633
228.869
248.306
267.685
286.757
305.322
323.25
340.333
356.31
370.87
383.617
394.261
402.637
408.618
412.159
413.297
412.114
408.822
403.752
397.166
389.277
380.256
370.193
359.243
347.619
335.544
323.3
311.121
299.16
287.576
276.497
265.972
256.015
246.541
237.353
228.332
219.419
210.569
201.808
193.14
184.553
176.079
167.742
159.555
151.552
143.745
136.103
128.63
121.31
114.125
107.134
100.366
93.836
87.591
81.667
76.1
70.927
66.121
61.597
57.279
53.086
48.972
45.004
41.31
38.127
35.732
34.356
34.244
35.498
38.09
41.817
46.106
50.35
54.326
57.979
61.426
65.181
69.429
74.632
82.331
93.46
108.202
125.522
142.105
156.108
167.781
178.687
192.021
204.892
209.517
198.231
162.43
103.906
33.561
-39.105
-102.419
-150.785
-187.099
-211.787
-225.859
-230.538
-223.978
-206.772
-182.323
-153.946
-124.819
-97.687
-73.927
-53.809
-37.267
-23.338
-9.915
4.794
21.335
39.76
59.937
81.114
102.323
121.973
137.302
146.198
148.121
143.008
131.024
112.65
88.435
59.866
30.113
2.16
-22.116
-40.754
-52.244
-55.243
-47.816
-29.354
-1.758
32.658
70.648
106.81
138.415
163.482
180.499
192.891
198.719
190.761
162
102.818
14.794
-88.18
-192.37
-283.935
-357.677
-418.178
-467.296
-505.385
-532.185
-545.817
-548.182
-543.245
-533.597
-521.471
-508.806
-497.247
-487.728
-480.111
-473.097
-464.564
-453.084
-437.79
-417.866
-393.121
-364.365
-333.033
-300.621
-268.886
-239.357
-213.591
-193.339
-179.274
-170.614
-165.764
-163.383
-162.453
-162.102
-161.179
-158.028
-151.672
-142.368
-131.215
-119.198
-106.811
-94.258
-81.78
-70.007
-59.49
-50.253
-41.871
-33.926
-26.286
-19.064
-12.524
-6.804
-1.884
2.193
5.29
7.329
8.339
8.407
7.716
6.401
4.445
1.879
-1.159
-4.763
-9.291
-14.767
-21.028
-28.054
-35.331
-43.632
-55.349
-69.875
-85.065
-97.176
-99.253
-91.906
-81.952
-76.299
-84.825
-107.775
-135.722
-161.464
-177.218
-182.114
-183.645
-186.235
-192.64
-203.349
-215.12
-226.225
-236.314
-244.428
-249.492
-250.698
-247.72
-241.067
-232.08
-222.235
-212.609
-204.604
-200.362
-201.444
-208.28
-220.504
-236.61
-254.504
-272.766
-290.156
-304.95
-315.841
-322.338
-324.334
-322.685
-319.257
-315.323
-311.674
-309.278
-308.753
-310.404
-314.692
-321.594
-330.16
-339.745
-350.035
-360.664
-371.576
-382.713
-393.727
-404.398
-414.945
-425.497
-436.008
-446.418
-456.529
-466.216
-475.555
-484.665
-493.447
-501.709
-509.585
-517.447
-525.808
-535.258
-545.9
-557.453
-570.078
-584.228
-599.827
-616.204
-632.036
-645.631
-656.54
-665.248
-671.624
-675.551
-677.669
-679.576
-684.365
-694.166
-707.567
-722.57
-737.842
-755.687
-782.56
-819.687
-862.114
-896.652
-903.086
-867.963
-786.692
-665.894
-522.886
-375.897
-240.216
-124.221
-30.521
42.975
101.752
149.261
189.358
223.323
248.409
263.522
267.096
261.219
252.594
247.283
253.195
271.79
295.048
313.055
312.129
285.199
241.133
193.564
157.265
143.164
146.183
154.456
159.213
153.128
137.832
121.069
106.618
97.03
92.604
90.419
89.377
89.431
90.129
91.552
93.542
95.532
97.256
98.64
99.546
99.907
99.8
99.364
98.763
98.173
97.707
97.388
97.271
97.445
98.002
99.058
100.682
102.836
105.455
108.471
111.852
115.631
119.713
123.865
127.957
132.023
136.349
141.361
147.198
153.613
160.364
167.453
174.888
182.499
189.431
194.43
196.763
196.519
194.423
191.083
187.004
182.896
180.49
182.232
189.902
204.152
224.25
248.958
276.807
306.028
333.648
355.679
368.975
371.276
361.539
339.769
306.413
262.018
208.401
148.542
84.462
18.193
-48.134
-113.11
-175.009
-231.422
-281.07
-323.456
-357.025
-380.939
-395.349
-400.229
-396.742
-387.141
-372.64
-354.237
-333.858
-312.702
-291.408
-270.725
-250.244
-228.945
-206.735
-183.562
-159.111
-133.609
-107.281
-80.348
-53.715
-28.465
-5.314
15.083
32.289
46.176
56.555
63.372
66.781
67.026
64.425
59.219
51.551
41.569
29.437
15.364
-0.364
-17.469
-35.679
-54.638
-74.028
-93.548
-112.893
-131.854
-150.245
-167.883
-184.628
-200.309
-214.763
-227.888
-239.603
-249.848
-258.588
-265.774
-271.353
-275.309
-277.652
-278.432
-277.726
-275.683
-272.488
-268.279
-263.227
-257.536
-251.356
-244.871
-238.24
-231.178
-223.384
-215.213
-206.941
-198.857
-191.619
-184.034
-175.131
-166.862
-159.817
-156.384
-159.251
-164.863
-172.174
-178.536
-178.106
-170.071
-150.677
-120.378
-87.612
-60.877
-50.575
-59.873
-81.378
-104.023
-117.01
-115.705
-103.396
-87.067
-71.962
-60.516
-52.343
-45.094
-37.778
-30.507
-23.409
-17.028
-11.632
-6.797
-2.256
1.878
5.259
7.38
8.049
7.436
5.975
3.079
-3.126
-13.503
-26.386
-35.603
-32.911
-13.075
22.275
60.561
86.694
88.985
62.295
17.557
-31.051
-71.106
-89.176
-84.911
-60.488
-17.545
32.106
78.436
109.313
109.699
77.603
20.494
-46.293
-98.682
-120.139
-108.104
-69.752
-25.68
1.52
0.517
-33.085
-91.451
-159.062
-225.83
-284.643
-334.913
-381.149
-424.629
-464.665
-497.725
-518.798
-525.852
-517.921
-494.06
-454.298
-398.484
-327.37
-245.5
-157.855
-66.786
23.835
112.697
198.99
275.844
340.502
388.62
414.339
420.556
407.239
380.381
353.387
332.219
324.86
331.803
342.145
349.741
347.547
332.385
310.115
284.018
256.379
228.93
199.9
168.844
137.015
105.582
75.995
49.329
25.997
6.371
-9.145
-20.373
-27.278
-29.872
-28.218
-22.404
-12.576
1.004
18.047
38.319
61.548
87.377
115.291
144.609
174.553
204.364
233.441
261.333
287.666
312.124
334.457
354.496
372.149
387.392
400.155
410.298
417.743
422.52
424.829
425.041
423.644
421.135
417.907
414.274
410.479
406.707
403.112
399.779
396.75
394.066
391.829
390.193
389.291
389.189
389.841
391.119
392.829
394.718
396.584
398.316
399.835
401.107
402.136
402.905
403.4
403.697
403.855
403.677
402.934
401.71
400.012
397.858
395.723
392.637
387.649
382.321
377.168
374.954
378.962
385.583
392.389
395.768
390.786
381.793
372.478
365.374
364.649
367.301
370.285
372.907
373.296
372.489
371.823
370.994
370.139
369.138
367.696
365.989
364.151
362.117
359.856
357.366
354.628
351.611
348.281
344.572
340.412
335.783
330.682
325.109
319.08
312.589
305.602
298.062
289.901
281.089
271.65
261.625
251.04
239.897
228.161
215.89
203.264
190.343
176.982
162.818
147.445
130.804
113.305
95.431
77.355
59.32
41.881
26.101
13.278
3.909
-2.686
-7.722
-11.964
-15.94
-20.336
-26.414
-35.873
-49.442
-66.266
-84.595
-103.098
-121.016
-137.759
-152.399
-163.616
-170.939
-175.038
-177.162
-178.255
-178.536
-179.083
-182.07
-188.593
-197.928
-204.791
-201.113
-184.055
-156.192
-127.329
-111.64
-114.502
-134.101
-161.771
-182.309
-189.01
-181.201
-161.622
-140.663
-123.757
-112.459
-108.445
-107.461
-106.659
-105.516
-102.255
-97.764
-93.082
-87.931
-82.676
-77.265
-71.56
-66.293
-62.172
-59.271
-57.441
-56.08
-55.16
-56.135
-59.941
-65.534
-68.047
-60.749
-39.52
-6.548
26.122
43.619
34.331
-5.295
-64.436
-125.845
-171.35
-187.843
-175.359
-143.327
-107.095
-79.886
-66.276
-63.92
-65.292
-65.122
-63.359
-61.762
-63.173
-68.392
-75.529
-83.154
-90.533
-97.189
-103.013
-107.839
-111.315
-113.609
-115.412
-117.079
-118.685
-120.213
-121.462
-122.351
-122.973
-123.278
-123.13
-122.456
-121.181
-119.291
-116.849
-113.852
-110.303
-106.201
-101.506
-96.2
-90.282
-83.739
-76.578
-68.81
-60.411
-51.362
-41.654
-31.274
-20.231
-8.531
3.825
16.829
30.463
44.706
59.519
74.862
90.7
106.996
123.708
140.796
158.202
175.868
193.738
211.751
229.846
247.959
266.023
283.969
301.732
319.249
336.457
353.292
369.692
385.595
400.941
415.676
429.745
443.098
455.688
467.471
478.41
488.471
497.625
505.848
513.119
519.426
524.759
529.115
532.493
534.902
536.35
536.855
536.435
535.116
532.925
529.894
526.058
521.455
516.126
510.114
503.464
496.222
488.435
480.151
471.419
462.288
452.804
443.014
432.964
422.698
412.258
401.683
391.01
380.274
369.506
358.734
347.982
337.273
326.624
316.049
305.559
295.163
284.864
274.665
264.563
254.555
244.634
234.793
225.021
215.307
205.638
195.999
186.378
176.759
167.127
157.47
147.773
138.025
128.215
118.334
108.376
98.337
88.214
78.008
67.721
57.361
46.936
36.458
25.944
15.413
4.885
-5.613
-16.053
-26.404
-36.632
-46.702
-56.575
-66.212
-75.571
-84.612
-93.29
-101.565
-109.391
-116.729
-123.535
-129.771
-135.399
-140.382
-144.688
-148.288
-151.154
-153.263
-154.598
-155.142
-154.886
-153.823
-151.952
-149.275
-145.801
-141.543
-136.517
-130.749
-124.264
-117.097
-109.285
-100.87
-91.899
-82.423
-72.495
-62.173
-51.519
-40.595
-29.467
-18.201
-6.866
4.468
15.729
26.848
37.762
48.406
58.717
68.632
78.088
87.029
95.418
103.197
110.298
116.664
122.236
126.982
130.911
134
136.19
137.496
137.999
137.764
136.872
135.337
133.053
130.011
126.359
122.003
116.568
109.967
102.283
93.508
84.148
73.588
59.676
43.051
26.034
11.967
6.817
10.244
15.922
18.59
11.886
-5.063
-26.086
-48.152
-70.518
-91.584
-111.283
-127.187
-133.193
-129.569
-121.93
-115.41
-116.859
-127.267
-140.917
-154.187
-164.174
-170.041
-174.32
-178.106
-181.311
-184.041
-185.946
-186.986
-187.571
-187.839
-187.731
-187.276
-186.521
-185.481
-184.177
-182.608
-180.741
-178.591
-176.221
-173.673
-170.978
-168.17
-165.276
-162.33
-159.37
-156.427
-153.526
-150.693
-147.951
-145.326
-142.839
-140.512
-138.364
-136.41
-134.665
-133.138
-131.839
-130.773
-129.945
-129.356
-129.004
-128.886
-128.995
-129.323
-129.864
-130.604
-131.53
-132.625
-133.873
-135.256
-136.76
-138.37
-140.066
-141.832
-143.646
-145.491
-147.35
-149.202
-151.023
-152.789
-154.473
-156.052
-157.509
-158.828
-159.994
-160.983
-161.766
-162.315
-162.608
-162.624
-162.344
-161.748
-160.813
-159.527
-157.887
-155.897
-153.568
-150.899
-147.881
-144.501
-140.739
-136.606
-132.144
-127.396
-122.423
-117.243
-111.822
-106.159
-100.279
-94.2
-87.997
-81.648
-74.982
-68.08
-61.236
-54.711
-48.865
-43.705
-38.726
-33.754
-28.999
-24.196
-18.836
-12.317
-3.639
7.178
18.871
30.75
42.621
53.871
63.907
71.832
76.056
76.438
74.432
70.911
66.392
61.48
56.386
51.754
48.937
48.097
48.203
48.581
48.673
48.108
47.028
45.235
42.099
37.55
31.995
25.744
19.145
12.359
5.235
-2.218
-9.848
-17.603
-25.469
-33.446
-41.576
-49.831
-58.104
-66.316
-74.402
-82.315
-90.041
-97.558
-104.834
-111.841
-118.551
-124.939
-130.992
-136.693
-142.036
-147.011
-151.614
-155.843
-159.707
-163.214
-166.38
-169.217
-171.733
-173.94
-175.854
-177.493
-178.882
-180.043
-181
-181.779
-182.403
-182.9
-183.295
-183.614
-183.879
-184.114
-184.338
-184.572
-184.834
-185.14
-185.505
-185.939
-186.451
-187.047
-187.732
-188.506
-189.369
-190.317
-191.346
-192.446
-193.609
-194.824
-196.079
-197.358
-198.647
-199.929
-201.19
-202.412
-203.579
-204.674
-205.684
-206.592
-207.385
-208.05
-208.577
-208.953
-209.172
-209.227
-209.112
-208.827
-208.37
-207.745
-206.957
-206.013
-204.924
-203.701
-202.359
-200.916
-199.389
-197.8
-196.171
-194.526
-192.89
-191.289
-189.75
-188.3
-186.967
-185.776
-184.753
-183.923
-183.308
-182.931
-182.812
-182.968
-183.418
-184.178
-185.261
-186.683
-188.453
-190.581
-193.073
-195.935
-199.169
-202.776
-206.751
-211.092
-215.79
-220.837
-226.223
-231.934
-237.956
-244.274
-250.868
-257.719
-264.807
-272.108
-279.598
-287.252
-295.044
-302.95
-310.946
-319.006
-327.106
-335.222
-343.333
-351.415
-359.444
-367.392
-375.231
-382.931
-390.464
-397.8
-404.911
-411.766
-418.341
-424.612
-430.56
-436.167
-441.408
-446.262
-450.701
-454.696
-458.219
-461.238
-463.719
-465.625
-466.923
-467.584
-467.588
-466.913
-465.535
-463.42
-460.521
-456.805
-452.256
-446.859
-440.609
-433.511
-425.584
-416.874
-407.456
-397.402
-386.778
-375.64
-364.018
-351.941
-339.434
-326.527
-313.267
-299.668
-285.698
-271.311
-256.433
-240.972
-224.833
-207.886
-189.955
-170.904
-150.615
-128.998
-106.035
-81.735
-56.141
-29.297
-1.182
28.179
58.598
89.766
121.214
152.423
183.046
212.642
240.542
266.224
289.317
309.703
327.844
344.168
358.493
370.732
381.025
388.979
394.156
395.818
392.122
383.037
371.006
357.19
341.448
320.038
286.294
239.672
186.736
140.066
113.8
113.014
135.475
174.18
218.954
263.846
301.449
321.164
318.871
294.207
254.652
217.155
191.842
181.723
184.246
189.574
191.917
190.471
185.439
179.003
172.175
164.358
155.52
146.005
136.211
126.575
117.344
108.589
100.374
92.818
85.928
79.485
73.309
67.561
62.785
59.348
57.238
56.405
56.412
57.928
63.011
70.854
79.102
84.407
80.624
68.427
53.212
38.882
33.792
40.297
55.708
81.834
114.049
146.262
173.181
184.859
178.721
160.879
141.506
131.92
136.927
152.071
167.158
176.31
180.159
184.311
198.698
223.883
251.791
274.115
281.058
273.866
261.959
251.057
246.08
243.788
238.17
229.883
222.188
223.975
244.363
286.452
346.919
414.013
470.675
499.884
494.389
457.545
399.959
337.73
280.462
233.225
201.865
187.522
190.886
210.481
239.279
272.552
307.583
340.85
367.53
380.204
373.993
351.484
323.156
301.222
291.93
293.973
300.239
304.568
305.372
303.829
302.331
301.628
300.975
299.884
298.214
296.334
294.638
293.127
291.704
290.398
289.296
288.422
287.693
286.931
285.994
284.832
283.453
281.868
280.056
277.985
275.619
272.933
269.913
266.55
262.841
258.787
254.387
249.643
244.561
239.151
233.426
227.398
221.07
214.443
207.52
200.312
192.832
185.098
177.124
168.928
160.529
151.95
143.213
134.34
125.35
116.265
107.115
97.915
88.669
79.388
70.088
60.791
51.545
42.39
33.342
24.466
15.88
7.669
-0.118
-7.448
-14.354
-20.872
-26.954
-32.726
-38.592
-44.628
-50.601
-56.51
-62.076
-67.808
-75.558
-84.899
-93.807
-98.957
-94.392
-79.325
-57.885
-36.945
-27.637
-34.662
-56.098
-84.719
-106.792
-113.972
-103.18
-78.09
-50.312
-27.77
-15.417
-13.176
-14.487
-15.207
-12.928
-7.02
0.09
7.262
14.465
21.557
28.905
36.529
43.983
51.069
57.732
63.88
69.464
74.455
78.82
82.543
85.634
88.047
89.681
90.477
90.412
89.474
87.68
85.04
81.548
77.231
72.144
66.311
59.747
52.424
44.27
35.254
25.383
14.695
3.279
-8.82
-21.603
-35.07
-49.23
-64.096
-79.652
-95.938
-113.054
-131.001
-149.713
-169.026
-188.658
-208.4
-228.11
-247.668
-267.009
-286.023
-304.543
-322.436
-339.586
-355.85
-371.099
-385.128
-397.637
-408.468
-417.578
-425.039
-431.076
-435.841
-439.405
-441.85
-443.231
-443.623
-443.144
-441.859
-439.79
-437.011
-433.619
-429.782
-425.764
-421.719
-417.702
-413.7
-409.591
-405.308
-400.849
-396.19
-391.311
-386.207
-380.864
-375.321
-369.671
-363.961
-358.208
-352.394
-346.448
-340.347
-334.121
-327.818
-321.524
-315.306
-309.2
-303.258
-297.538
-292.074
-286.89
-281.981
-277.306
-272.841
-268.577
-264.51
-260.645
-256.976
-253.478
-250.129
-246.902
-243.766
-240.691
-237.643
-234.578
-231.461
-228.26
-224.952
-221.521
-217.947
-214.207
-210.282
-206.153
-201.8
-197.207
-192.356
-187.226
-181.801
-176.07
-170.021
-163.647
-156.942
-149.9
-142.519
-134.8
-126.743
-118.353
-109.635
-100.595
-91.245
-81.595
-71.66
-61.456
-51.003
-40.319
-29.428
-18.355
-7.126
4.232
15.691
27.221
38.793
50.377
61.941
73.456
84.889
96.209
107.385
118.382
129.171
139.718
149.993
159.965
169.604
178.882
187.77
196.242
204.273
211.839
218.919
225.491
231.537
237.043
241.994
246.382
250.196
253.434
256.091
258.171
259.675
260.61
260.986
260.812
260.104
258.878
257.151
254.944
252.278
249.178
245.67
241.78
237.538
232.972
228.115
222.997
217.652
212.113
206.415
200.589
194.671
188.692
182.686
176.684
170.716
164.81
158.993
153.289
147.722
142.311
137.076
132.033
127.195
122.573
118.177
114.014
110.087
106.399
102.949
99.735
96.755
94.001
91.468
89.146
87.025
85.092
83.335
81.739
80.287
78.961
77.744
76.615
75.555
74.544
73.563
72.59
71.609
70.6
69.548
68.438
67.254
65.983
64.61
63.125
61.516
59.775
57.893
55.864
53.682
51.345
48.852
46.201
43.393
40.431
37.314
34.043
30.622
27.055
23.348
19.515
15.562
11.497
7.346
3.134
-1.116
-5.372
-9.622
-13.867
-18.074
-22.21
-26.301
-30.363
-34.396
-38.422
-42.398
-46.25
-49.996
-53.677
-57.102
-60.058
-62.641
-64.824
-66.559
-68.237
-68.723
-66.92
-64.359
-61.492
-61.139
-66.656
-74.242
-81.37
-84.313
-77.979
-66.924
-55.009
-44.866
-40.866
-39.962
-39.055
-37.496
-33.374
-27.753
-22.042
-15.951
-9.702
-3.315
3.405
10.186
16.849
23.501
30.224
37.072
44.13
51.45
59.102
67.249
75.842
84.63
93.189
100.816
107.214
112.583
117.106
121.086
124.911
128.769
133.583
141.09
152.113
166.776
184.672
204.233
224.094
243.417
259.949
270.671
273.515
266.601
249.56
224.516
193.464
158.419
123.034
90.825
64.698
48.06
42.374
46.489
59.086
77.912
99.448
121.191
140.976
156.088
165.251
168.588
166.42
160.198
152.059
143.135
134.317
126.659
120.539
116.106
113.499
112.239
111.598
111.288
111.154
111.11
111.291
111.693
112.231
112.953
113.937
115.201
116.739
118.48
120.295
122.109
123.879
125.575
127.182
128.667
129.983
131.092
131.968
132.604
133
133.161
133.091
132.792
132.274
131.555
130.653
129.578
128.337
126.926
125.347
123.607
121.721
119.705
117.579
115.365
113.082
110.76
108.425
106.106
103.833
101.633
99.536
97.572
95.773
94.171
92.796
91.678
90.847
90.328
90.147
90.328
90.889
91.85
93.225
95.028
97.269
99.955
103.091
106.68
110.72
115.211
120.145
125.513
131.303
137.498
144.079
151.022
158.301
165.885
173.742
181.836
190.128
198.577
207.142
215.778
224.439
233.078
241.648
250.102
258.39
266.466
274.283
281.794
288.955
295.724
302.06
307.923
313.278
318.092
322.333
325.973
328.99
331.362
333.071
334.106
334.456
334.118
333.092
331.382
328.997
325.952
322.263
317.954
313.051
307.586
301.592
295.108
288.175
280.837
273.142
265.139
256.88
248.417
239.806
231.101
222.358
213.634
204.983
196.461
188.122
180.017
172.198
164.714
157.609
150.928
144.712
138.996
133.814
129.195
125.164
121.741
118.942
116.776
115.251
114.368
114.122
114.505
115.504
117.101
119.275
121.999
125.241
128.969
133.143
137.723
142.663
147.917
153.436
159.168
165.059
171.057
177.106
183.151
189.135
195.004
200.703
206.179
211.378
216.251
220.75
224.828
228.444
231.558
234.133
236.138
237.544
238.326
238.464
237.941
236.746
234.871
232.312
229.07
225.149
220.56
215.315
209.433
202.934
195.843
188.187
179.997
171.308
162.155
152.575
142.605
132.29
121.675
110.809
99.736
88.502
77.148
65.721
54.278
42.85
31.455
20.114
8.845
-2.315
-13.3
-24.087
-34.677
-45.003
-54.953
-64.431
-73.357
-81.741
-89.676
-97.157
-104.103
-110.684
-117.334
-124.214
-131.227
-138.342
-145.163
-152.486
-162.56
-174.663
-186.556
-194.953
-193.238
-181.909
-167.007
-152.913
-149.434
-159.653
-177.984
-203.813
-229.54
-247.232
-257.274
-254.951
-242.298
-228.771
-218.242
-216.451
-224.864
-237.059
-249.52
-259.741
-266.505
-272.263
-278.27
-284.416
-290.768
-296.941
-302.834
-308.811
-315.027
-321.423
-327.958
-334.618
-341.371
-348.178
-354.986
-361.71
-368.297
-374.749
-381.052
-387.184
-393.12
-398.835
-404.308
-409.524
-414.465
-419.109
-423.436
-427.425
-431.058
-434.319
-437.193
-439.671
-441.743
-443.401
-444.638
-445.448
-445.826
-445.775
-445.291
-444.375
-443.023
-441.235
-439.015
-436.375
-433.327
-429.886
-426.063
-421.857
-417.274
-412.322
-407.012
-401.356
-395.365
-389.043
-382.409
-375.488
-368.309
-360.911
-353.315
-345.538
-337.588
-329.465
-321.199
-312.852
-304.485
-296.173
-287.948
-279.786
-271.698
-263.713
-255.855
-248.202
-240.73
-233.26
-225.87
-218.847
-212.443
-207.006
-202.526
-198.465
-194.63
-191.204
-187.892
-184.147
-179.329
-172.391
-163.325
-153.379
-143.215
-132.996
-123.311
-114.725
-108.116
-105.065
-105.676
-108.443
-112.457
-117.163
-121.921
-126.495
-130.206
-131.665
-130.702
-128.348
-125.273
-122.054
-119.074
-116.199
-113.652
-112.076
-111.548
-111.677
-112.186
-112.701
-113.054
-113.42
-113.813
-114.13
-114.403
-114.672
-114.951
-115.508
-116.585
-117.974
-119.587
-121.473
-123.287
-125.971
-130.391
-135.172
-139.852
-141.648
-137.689
-130.499
-121.413
-115.616
-118.55
-128.693
-145.76
-163.39
-174.824
-179.293
-174.65
-166.149
-159.531
-156.362
-159.645
-166.474
-173.457
-179.954
-184.275
-187.342
-190.436
-193.303
-196.114
-198.728
-200.829
-202.595
-204.162
-205.482
-206.55
-207.345
-207.825
-207.961
-207.723
-207.069
-205.953
-204.37
-202.319
-199.788
-196.777
-193.286
-189.314
-184.87
-179.964
-174.596
-168.792
-162.579
-155.966
-148.965
-141.579
-133.779
-125.563
-116.956
-107.923
-98.466
-88.638
-78.451
-67.948
-57.278
-46.538
-35.772
-25.237
-15.143
-5.337
4.097
12.887
21.388
28.85
34.29
39.054
43.685
50.514
63.621
82.076
103.143
120.936
126.635
117.068
95.796
72.427
58.599
61.83
80.06
103.317
122.583
131.56
131.479
129.815
130.856
136.953
147.681
159.228
169.668
177.721
181.267
179.11
170.361
154.366
131.203
102.482
69.715
33.005
-5.616
-46.074
-88.48
-126.628
-156.342
-172.468
-169.152
-151.142
-123.358
-90.719
-60.684
-32.796
-6.182
18.021
40.614
59.798
73.905
83.797
90.473
94.934
98
99.554
99.236
96.932
92.654
86.524
78.209
67.169
53.153
36.124
16.186
-6.39
-31.912
-61.401
-94.949
-131.762
-170.6
-209.532
-246.904
-281.6
-311.731
-334.756
-349.373
-355.366
-353.666
-346.574
-335.937
-323.011
-309.681
-298.056
-289.377
-284.201
-282.051
-281.409
-281.339
-281.464
-281.263
-280.271
-278.245
-275.134
-271.33
-267.589
-264.27
-261.32
-258.546
-255.709
-252.684
-249.436
-245.877
-241.842
-237.241
-232.109
-226.551
-220.686
-214.554
-208.099
-201.258
-194.022
-186.427
-178.56
-170.537
-162.444
-154.35
-146.333
-138.448
-130.725
-123.183
-115.798
-108.528
-101.348
-94.255
-87.257
-80.379
-73.635
-67.028
-60.554
-54.205
-47.968
-41.827
-35.76
-29.744
-23.764
-17.811
-11.883
-5.984
-0.116
5.718
11.518
17.283
23.015
28.714
34.383
40.024
45.635
51.213
56.753
62.247
67.685
73.057
78.352
83.559
88.666
93.662
98.538
103.279
107.875
112.312
116.577
120.655
124.532
128.191
131.616
134.794
137.71
140.351
142.708
144.771
146.534
147.99
149.137
149.974
150.499
150.713
150.617
150.216
149.513
148.518
147.238
145.683
143.865
141.797
139.49
136.958
134.21
131.253
128.1
124.76
121.246
117.571
113.749
109.798
105.74
101.597
97.392
93.143
88.863
84.568
80.264
75.957
71.65
67.34
63.023
58.693
54.348
49.988
45.61
41.211
36.778
32.291
27.737
23.119
18.445
13.73
9.005
4.304
-0.317
-4.783
-9.022
-12.967
-16.564
-19.784
-22.606
-25.028
-27.042
-28.632
-29.813
-30.644
-31.204
-31.601
-31.945
-32.34
-32.918
-33.847
-35.291
-37.396
-40.274
-43.978
-48.536
-53.938
-60.17
-67.219
-74.978
-83.256
-91.789
-100.232
-108.269
-115.626
-122.002
-127.068
-130.501
-131.975
-131.225
-128.123
-122.552
-114.392
-103.517
-89.768
-73.099
-53.661
-31.785
-7.701
18.41
46.039
74.797
104.31
133.683
163.392
193.944
223.566
251.543
274.717
289.535
298.416
303.028
308.561
320.484
337.172
357.766
376.654
389.442
395.57
391.168
377.835
354.712
322.126
288.811
260.561
244.687
244.904
253.853
261.521
258.999
240.577
208.358
171.234
135.631
105.518
82.718
62.918
43.499
24.105
3.686
-15.977
-33.442
-48.841
-61.619
-71.603
-78.861
-82.904
-83.318
-79.882
-72.228
-60.125
-43.585
-22.713
2.182
30.612
62.013
95.712
131.018
167.33
204.037
240.572
276.441
311.092
343.954
374.435
401.821
425.454
444.863
459.682
469.719
474.955
475.445
471.408
463.173
451.034
435.315
416.351
394.428
369.907
343.217
314.816
285.285
255.227
225.123
195.393
166.385
138.344
111.471
85.848
61.431
38.155
15.91
-5.436
-26.017
-46.012
-65.614
-85.003
-104.405
-124.069
-144.205
-165.017
-186.669
-209.312
-233.102
-257.961
-283.579
-309.454
-334.864
-359.06
-381.422
-401.364
-418.34
-432.369
-443.993
-453.982
-463.404
-473.171
-483.613
-494.59
-505.812
-516.003
-522.79
-523.797
-516.408
-498.154
-467.748
-424.731
-368.791
-301.24
-225.339
-144.468
-62.695
15.398
86.556
147.989
196.62
231.198
252.543
261.82
261.388
254.518
243.241
229.474
215.689
203.051
191.678
181.559
171.669
160.483
147.561
132.69
115.499
96.324
75.578
53.58
31.165
9.214
-11.885
-31.906
-50.762
-68.596
-85.411
-101.167
-115.959
-129.845
-142.901
-155.216
-166.84
-177.896
-188.503
-198.748
-208.708
-218.375
-227.675
-236.532
-244.828
-252.449
-259.405
-265.745
-271.555
-277.045
-282.339
-287.603
-293.106
-298.823
-304.489
-309.652
-313.775
-316.677
-318.616
-319.778
-320.011
-319.277
-317.765
-316.238
-315.598
-315.654
-315.223
-312.728
-307.119
-298.092
-285.231
-267.096
-241.896
-208.808
-168.083
-121.168
-69.123
-11.658
51.167
117.883
186.199
253.48
317.269
376.508
429.921
474.981
509.831
533.872
547.453
552.243
550.563
543.724
533.09
520.821
508.486
497.078
487.166
478.235
469.203
459.698
449.569
438.442
426.345
413.345
399.444
385.131
371.083
357.52
344.404
331.561
318.519
304.911
290.51
274.96
257.929
239.209
218.638
196.188
171.952
146.081
118.822
90.473
61.342
31.857
2.547
-25.966
-52.933
-77.736
-99.924
-119.112
-135.022
-147.417
-156.076
-160.9
-161.903
-159.195
-153.001
-143.549
-131.04
-115.791
-98.19
-78.719
-57.977
-36.375
-14.116
8.631
31.757
55.134
78.582
102.017
125.448
148.911
172.479
196.183
219.981
243.857
267.82
291.894
316.149
340.425
364.284
387.221
408.691
428.243
445.568
460.204
471.504
478.999
482.427
481.778
477.408
469.484
457.815
442.556
423.943
401.698
375.562
344.853
309.17
269.911
228.762
185.586
136.718
77.187
5.321
-73.317
-143.826
-190.746
-206.781
-195.192
-170.255
-146.88
-132.338
-126.515
-123.535
-118.405
-109.831
-98.827
-87.414
-75.678
-62.78
-48.144
-31.149
-12.119
8.262
29.563
51.019
71.759
91.322
109.502
126.391
142.315
157.527
172.23
186.587
200.749
214.864
229.023
243.367
258.057
273.169
288.764
304.871
321.389
338.206
355.162
371.896
388.042
403.227
416.996
429.078
439.295
447.463
453.5
457.271
458.572
457.313
453.44
446.854
437.542
425.455
410.513
392.885
372.795
350.502
326.401
300.753
273.749
245.625
216.563
186.793
156.656
126.441
96.422
67.025
38.686
11.948
-12.527
-34.323
-53.139
-68.721
-80.972
-89.747
-94.89
-96.367
-94.177
-88.35
-79.02
-66.299
-50.323
-31.452
-10.151
12.975
37.157
61.819
86.477
110.64
133.953
156.08
176.737
195.836
213.307
229.019
242.834
254.501
263.807
270.804
275.661
278.691
280.374
280.989
280.825
280.438
280.157
280.139
280.303
279.896
278.17
274.997
270.44
264.645
258.041
250.914
243.94
238.834
237.119
238.251
240.197
240.962
239.158
238.327
244.239
257.32
273.241
278.625
256.538
199.8
110.677
5.251
-94.103
-172.645
-222.145
-247.35
-259.982
-267.625
-277.4
-289.645
-299.55
-305.925
-307.56
-305.338
-303.529
-303.517
-304.829
-306.698
-306.85
-304.014
-298.414
-290.004
-278.74
-264.895
-248.669
-230.547
-211.444
-191.914
-172.185
-152.47
-132.824
-113.336
-94.241
-75.753
-58.064
-41.334
-25.677
-11.158
2.169
14.156
24.665
33.599
40.88
46.5
50.482
52.802
53.43
52.429
49.947
46.248
41.689
36.511
30.898
25.021
19.031
13.193
7.758
2.888
-1.299
-4.724
-7.328
-9.011
-9.682
-9.358
-8.116
-6.095
-3.498
-0.429
3.042
6.836
10.886
15.084
19.337
23.628
27.963
32.329
36.696
41.019
45.27
49.511
53.818
58.238
62.865
67.811
73.194
79.137
85.686
92.776
100.337
108.382
116.794
125.194
133.283
140.97
148.282
155.554
162.028
165.597
165.497
162.997
163.072
173.078
195.787
227.309
257.17
273.17
270.424
253.483
233.98
223.255
225.724
238.515
254.197
266.939
274.973
279.325
282.501
285.759
288.981
291.94
294.417
296.547
298.671
300.902
303.232
305.692
308.309
311.089
314.007
316.999
319.986
322.9
325.699
328.323
330.732
332.921
334.874
336.575
338.018
339.209
340.186
341.021
341.719
342.211
342.47
342.526
342.535
342.779
343.466
344.697
346.572
349.204
352.634
356.846
361.541
366.07
369.975
373.083
375.366
377.015
378.325
379.516
381.157
384.232
389.082
395.399
402.591
409.447
414.548
416.543
413.443
402.993
384.133
356.643
320.73
277.547
228.548
175.629
121.917
70.568
23.668
-17.187
-50.844
-76.837
-94.928
-105.841
-111.615
-114.017
-114.317
-113.692
-113.004
-113.068
-114.57
-117.301
-120.36
-123.269
-125.817
-127.934
-129.735
-131.08
-131.967
-132.867
-134.456
-137.222
-141.37
-146.853
-153.538
-161.44
-170.52
-180.61
-191.421
-202.596
-213.936
-225.378
-236.894
-248.441
-259.905
-271.154
-282.128
-292.833
-303.281
-313.487
-323.448
-333.154
-342.659
-352.036
-361.364
-370.735
-380.19
-389.738
-399.391
-409.15
-419.017
-428.993
-439.063
-449.187
-459.341
-469.508
-479.667
-489.804
-499.888
-509.878
-519.739
-529.432
-538.929
-548.206
-557.239
-566.011
-574.509
-582.726
-590.653
-598.291
-605.633
-612.671
-619.397
-625.803
-631.881
-637.625
-643.029
-648.089
-652.801
-657.163
-661.175
-664.834
-668.137
-671.082
-673.663
-675.874
-677.709
-679.162
-680.228
-680.904
-681.186
-681.072
-680.561
-679.651
-678.339
-676.624
-674.504
-671.976
-669.037
-665.687
-661.928
-657.764
-653.201
-648.246
-642.906
-637.189
-631.101
-624.648
-617.839
-610.683
-603.191
-595.379
-587.265
-578.872
-570.225
-561.348
-552.272
-543.024
-533.633
-524.121
-514.513
-504.831
-495.104
-485.353
-475.592
-465.828
-456.059
-446.281
-436.493
-426.695
-416.888
-407.083
-397.294
-387.54
-377.853
-368.267
-358.816
-349.518
-340.383
-331.437
-322.741
-314.398
-306.554
-299.326
-292.793
-287.019
-282
-277.694
-274.045
-270.86
-267.861
-264.949
-262.159
-259.717
-258.077
-257.498
-258
-259.688
-262.523
-265.954
-269.033
-270.212
-267.663
-260.262
-247.421
-228.644
-203.99
-174.39
-141.799
-109.44
-80.653
-57.807
-42.904
-37.913
-44.472
-63.356
-93.328
-131.121
-173.464
-217.685
-261.04
-300.492
-331.985
-351.514
-357.555
-350.706
-331.603
-300.727
-258.381
-205.142
-144.014
-79.23
-13.448
51.601
114.031
171.654
221.085
258.768
283.678
296.504
297.806
288.683
270.641
245.784
217.939
191.116
167.636
148.736
135.107
126.597
122.868
123.094
125.291
127.771
129.763
130.882
131.245
131.217
130.953
130.819
131.526
133.397
136.391
140.318
144.699
149.187
153.677
158.009
162.028
165.654
168.803
171.472
173.744
175.635
177.127
178.208
178.848
179.095
179.062
178.856
178.598
178.369
178.195
178.099
178.08
178.117
178.184
178.243
178.24
178.149
177.958
177.663
177.271
176.773
176.145
175.363
174.402
173.239
171.864
170.267
168.442
166.392
164.127
161.662
159.016
156.206
153.242
150.137
146.901
143.549
140.096
136.561
132.961
129.318
125.659
122.012
118.406
114.873
111.441
108.141
105.003
102.056
99.328
96.846
94.635
92.72
91.125
89.868
88.971
88.448
88.313
88.576
89.242
90.311
91.784
93.659
95.935
98.61
101.678
105.132
108.962
113.16
117.709
122.587
127.765
133.204
138.866
144.715
150.712
156.819
162.999
169.209
175.414
181.589
187.7
193.71
199.568
205.202
210.562
215.626
220.376
224.821
228.962
232.786
236.306
239.56
242.561
245.308
247.765
249.84
251.479
252.661
253.391
253.725
253.668
253.17
252.182
250.651
248.527
245.811
242.435
238.25
233.192
227.253
220.5
213.138
205.294
196.997
188.277
179.134
169.639
159.981
150.327
140.793
131.502
122.522
114.013
106.296
99.553
93.858
89.206
85.402
82.371
80.219
78.995
78.708
79.289
80.497
82.115
84.074
86.257
88.543
90.728
92.398
93.288
93.292
92.352
90.564
87.894
84.089
78.98
72.52
64.715
55.744
45.762
34.713
22.648
9.713
-3.87
-17.677
-31.41
-44.954
-58.213
-71.154
-83.647
-95.385
-106.143
-115.837
-124.398
-131.855
-138.201
-143.237
-146.901
-149.278
-150.527
-150.964
-150.811
-150.129
-148.98
-147.434
-145.599
-143.667
-141.77
-139.928
-138.185
-136.581
-135.194
-134.229
-133.78
-133.818
-134.264
-134.946
-135.75
-136.661
-137.653
-138.678
-139.696
-140.653
-141.541
-142.421
-143.318
-144.228
-145.118
-145.905
-146.558
-147.104
-147.594
-148.105
-148.699
-149.4
-150.241
-151.27
-152.514
-153.991
-155.69
-157.569
-159.601
-161.782
-164.108
-166.589
-169.218
-171.975
-174.835
-177.769
-180.75
-183.748
-186.728
-189.648
-192.473
-195.172
-197.72
-200.098
-202.285
-204.251
-205.971
-207.416
-208.558
-209.368
-209.817
-209.871
-209.503
-208.686
-207.397
-205.616
-203.324
-200.507
-197.152
-193.25
-188.794
-183.782
-178.213
-172.091
-165.424
-158.224
-150.507
-142.292
-133.603
-124.467
-114.914
-104.977
-94.692
-84.099
-73.237
-62.15
-50.885
-39.49
-28.015
-16.512
-5.033
6.366
17.628
28.697
39.516
50.029
60.18
69.917
79.185
87.937
96.125
103.707
110.643
116.897
122.439
127.241
131.282
134.545
137.019
138.697
139.578
139.664
138.963
137.489
135.259
132.295
128.624
124.275
119.284
113.69
107.535
100.865
93.727
86.173
78.257
70.032
61.556
52.884
44.076
35.187
26.274
17.392
8.594
-0.07
-8.552
-16.809
-24.801
-32.493
-39.855
-46.861
-53.49
-59.726
-65.559
-70.982
-75.995
-80.601
-84.809
-88.631
-92.086
-95.197
-97.99
-100.497
-102.751
-104.79
-106.656
-108.39
-110.038
-111.645
-113.261
-114.932
-116.708
-118.637
-120.768
-123.145
-125.814
-128.816
-132.19
-135.97
-140.187
-144.866
-150.027
-155.685
-161.848
-168.522
-175.706
-183.392
-191.572
-200.229
-209.342
-218.887
-228.833
-239.142
-249.774
-260.683
-271.82
-283.132
-294.562
-306.053
-317.543
-328.973
-340.281
-351.404
-362.28
-372.846
-383.039
-392.798
-402.063
-410.778
-418.886
-426.339
-433.09
-439.099
-444.331
-448.759
-452.362
-455.124
-457.035
-458.086
-458.274
-457.599
-456.064
-453.677
-450.452
-446.405
-441.562
-435.956
-429.631
-422.637
-415.028
-406.859
-398.183
-389.055
-379.526
-369.65
-359.474
-349.038
-338.39
-327.58
-316.666
-305.728
-294.832
-284.018
-273.319
-262.747
-252.286
-241.937
-231.685
-221.487
-211.32
-201.18
-191.077
-181.08
-171.256
-161.634
-152.223
-142.983
-133.876
-124.926
-116.155
-107.584
-99.28
-91.267
-83.599
-76.424
-69.839
-63.869
-58.507
-53.615
-49.012
-44.616
-40.359
-36.175
-32.009
-27.688
-23.025
-17.907
-12.196
-5.794
1.422
9.726
19.335
30.323
42.736
56.462
71.321
87.3
104.37
122.399
141.244
160.609
180.135
199.615
218.867
237.7
255.919
273.201
289.265
304.016
317.405
329.44
340.145
349.362
356.943
362.908
367.315
370.336
372.211
373.035
372.847
371.754
369.881
367.355
364.256
360.488
355.865
350.28
343.716
336.279
328.092
319.191
309.582
299.282
288.335
276.829
264.883
252.548
239.83
226.851
213.845
201.175
189.319
178.666
169.443
161.857
156.121
152.38
150.75
151.235
153.684
158.001
164.131
172.002
181.578
192.681
204.923
217.836
230.857
243.394
254.981
265.115
273.202
278.797
281.562
281.274
277.915
271.402
261.547
248.263
231.506
211.338
188.073
162.109
133.9
104.049
73.141
41.804
10.822
-19.114
-47.474
-73.789
-97.744
-119.02
-137.16
-151.809
-162.727
-169.725
-172.816
-172.102
-167.699
-159.879
-148.998
-135.447
-119.759
-102.485
-84.014
-64.701
-44.83
-24.63
-4.451
15.391
34.697
53.285
71.043
87.909
103.777
118.594
132.437
145.414
157.721
169.635
181.31
192.862
204.406
215.972
227.645
239.529
251.62
263.904
276.397
289.113
302.16
315.696
329.734
344.227
359.079
374.087
389.115
404.051
418.701
432.92
446.557
459.424
471.438
482.534
492.567
501.371
508.667
514.091
517.438
518.599
517.491
514.142
508.55
500.704
490.773
478.964
465.499
450.656
434.63
417.626
399.96
382.007
364.255
347.246
331.381
316.967
304.311
293.663
285.307
279.542
276.47
276.1
278.415
283.346
290.862
300.899
313.266
327.676
343.76
361.15
379.579
398.842
418.717
438.974
459.344
479.536
499.386
518.797
537.674
555.943
573.506
590.301
606.356
621.776
636.702
651.227
665.38
679.151
692.534
705.54
718.195
730.526
742.499
754.065
765.188
775.837
785.992
795.614
804.624
812.909
820.357
826.89
832.469
837.076
840.699
843.333
844.979
845.658
845.417
844.3
842.345
839.59
836.071
831.839
826.956
821.498
815.54
809.149
802.39
795.324
788.012
780.512
772.874
765.142
757.352
749.545
741.762
734.042
726.426
718.945
711.63
704.508
697.601
690.927
684.498
678.321
672.4
666.732
661.316
656.143
651.206
646.492
641.987
637.673
633.531
629.539
625.674
621.912
618.224
614.584
610.964
607.336
603.673
599.949
596.137
592.212
588.149
583.924
579.514
574.896
570.048
564.95
559.582
553.928
547.972
541.7
535.097
528.154
520.86
513.208
505.19
496.8
488.027
478.866
469.31
459.354
448.99
438.209
426.999
415.353
403.27
390.747
377.783
364.373
350.516
336.209
321.456
306.256
290.6
274.48
257.886
240.811
223.259
205.236
186.747
167.806
148.414
128.574
108.302
87.605
66.479
44.926
22.939
0.533
-22.23
-45.297
-68.616
-92.119
-115.752
-139.456
-163.154
-186.819
-210.43
-233.936
-257.295
-280.413
-303.192
-325.603
-347.582
-369.078
-390.099
-410.57
-430.473
-449.988
-469.059
-487.438
-504.959
-521.252
-536.183
-550.173
-563.306
-575.334
-586.563
-597.525
-608.822
-621.456
-635.379
-649.32
-662.641
-675.14
-686.16
-695.049
-700.806
-701.88
-698.325
-691.784
-683.311
-673.555
-663.182
-652.506
-642.315
-634.08
-628.079
-623.347
-619.23
-615.262
-611.217
-607.38
-603.727
-599.676
-595.064
-590.254
-585.523
-581.19
-577.431
-574.062
-571.011
-568.396
-566.268
-564.629
-563.49
-562.765
-562.388
-562.385
-562.739
-563.466
-564.617
-566.183
-568.153
-570.525
-573.282
-576.424
-579.968
-583.892
-588.146
-592.683
-597.459
-602.445
-607.631
-612.998
-618.522
-624.177
-629.943
-635.811
-641.777
-647.838
-653.985
-660.208
-666.5
-672.86
-679.297
-685.823
-692.446
-699.183
-706.051
-713.071
-720.272
-727.68
-735.312
-743.19
-751.336
-759.767
-768.494
-777.536
-786.909
-796.637
-806.76
-817.306
-828.283
-839.688
-851.506
-863.696
-876.21
-888.986
-901.924
-914.927
-927.895
-940.754
-953.473
-966.011
-978.313
-990.276
-1001.789
-1012.838
-1023.485
-1033.757
-1043.647
-1053.143
-1062.2
-1070.892
-1079.272
-1086.995
-1093.747
-1099.53
-1104.356
-1108.529
-1111.502
-1111.553
-1108.067
-1102.441
-1100.163
-1108.664
-1131.488
-1166.239
-1200.264
-1217.448
-1208.211
-1170.353
-1116.804
-1066.973
-1033.32
-1023.391
-1030.784
-1040.936
-1045.072
-1036.457
-1016.296
-991.449
-963.708
-933.609
-899.394
-856.454
-803.044
-738.714
-662.748
-576.746
-483.559
-385.561
-285.926
-188.271
-95.524
-11.204
60.537
117.611
159.773
186.992
200.098
200.615
190.025
171.118
147.963
123.227
98.339
74.548
52.432
32.35
14.709
-1.133
-16.766
-33.033
-50.132
-67.995
-85.988
-103.499
-120.01
-134.588
-146.126
-153.934
-157.683
-157.34
-153.222
-145.646
-134.894
-121.379
-105.527
-87.697
-68.195
-47.284
-25.249
-2.481
20.481
43.082
64.874
85.514
104.758
122.446
138.457
152.732
165.309
176.271
185.69
193.628
200.113
205.178
208.93
211.539
213.246
214.329
214.989
215.369
215.577
215.678
215.717
215.718
215.644
215.428
215.034
214.435
213.635
212.653
211.475
210.068
208.388
206.378
204.013
201.301
198.257
194.917
191.331
187.561
183.696
179.844
176.095
172.534
169.234
166.261
163.683
161.575
160.002
159.03
158.716
159.111
160.259
162.199
164.96
168.562
173.015
178.318
184.467
191.456
199.271
207.897
217.309
227.477
238.364
249.932
262.132
274.91
288.207
301.956
316.09
330.536
345.218
360.06
374.984
389.908
404.755
419.445
433.902
448.051
461.821
475.143
487.951
500.184
511.787
522.706
532.897
542.319
550.937
558.723
565.656
571.721
576.908
581.217
584.652
587.223
588.947
589.848
589.955
589.302
587.93
585.886
583.219
579.983
576.235
572.037
567.45
562.537
557.361
551.987
546.477
540.892
535.293
529.738
524.281
518.976
513.87
509.008
504.43
500.171
496.261
492.725
489.581
486.842
484.516
482.604
481.104
480.005
479.293
478.947
478.944
479.251
479.835
480.654
481.666
482.822
484.072
485.363
486.643
487.854
488.941
489.848
490.52
490.904
490.945
490.591
489.793
488.503
486.677
484.273
481.253
477.584
473.236
468.186
462.415
455.91
448.663
440.668
431.926
422.44
412.222
401.283
389.643
377.323
364.352
350.763
336.593
321.884
306.681
291.03
274.982
258.589
241.905
224.983
207.877
190.64
173.329
156.002
138.713
121.519
104.477
87.641
71.069
54.815
38.927
23.449
8.422
-6.121
-20.144
-33.616
-46.512
-58.807
-70.471
-81.478
-91.798
-101.399
-110.263
-118.375
-125.728
-132.318
-138.148
-143.226
-147.576
-151.221
-154.175
-156.447
-158.029
-158.924
-159.165
-158.79
-157.854
-156.43
-154.583
-152.388
-149.95
-147.349
-144.641
-141.857
-138.979
-135.99
-132.905
-129.763
-126.632
-123.568
-120.582
-117.681
-114.873
-112.127
-109.415
-106.663
-103.734
-100.543
-97.073
-93.351
-89.489
-85.603
-81.769
-78.062
-74.549
-71.308
-68.471
-66.163
-64.49
-63.614
-63.698
-64.959
-67.682
-72.057
-78.187
-86.131
-95.861
-107.354
-120.588
-135.473
-151.883
-169.659
-188.567
-208.385
-228.89
-249.773
-270.735
-291.46
-311.592
-330.899
-349.215
-366.378
-382.263
-396.716
-409.608
-420.908
-430.642
-438.864
-445.709
-451.291
-455.732
-459.257
-462.044
-464.241
-466.01
-467.369
-468.279
-468.749
-468.8
-468.488
-467.872
-466.937
-465.636
-463.955
-461.857
-459.379
-456.583
-453.477
-450.153
-446.733
-443.345
-440.265
-437.836
-436.349
-436.074
-437.277
-440.208
-445.181
-452.513
-462.4
-474.945
-490.115
-507.796
-527.849
-550.04
-574.108
-599.753
-626.553
-654.021
-681.687
-709.044
-735.523
-760.514
-783.283
-803.082
-819.339
-831.627
-839.657
-843.217
-842.144
-836.356
-825.827
-810.606
-790.814
-766.588
-738.096
-705.618
-669.554
-630.443
-589.008
-545.992
-502.021
-457.629
-413.299
-369.503
-326.72
-285.395
-245.887
-208.484
-173.472
-141.173
-111.87
-85.726
-62.774
-42.892
-25.813
-11.259
1.006
11.21
19.607
26.486
32.187
37.055
41.349
45.281
49.096
53.072
57.468
62.467
68.16
74.537
81.538
89.109
97.199
105.739
114.617
123.697
132.801
141.742
150.395
158.662
166.434
173.599
180.056
185.739
190.631
194.765
198.168
200.861
202.872
204.235
205.009
205.266
205.087
204.56
203.747
202.696
201.451
200.048
198.515
196.869
195.11
193.219
191.188
189.014
186.693
184.222
181.596
178.801
175.831
172.676
169.33
165.796
162.075
158.175
154.108
149.887
145.532
141.066
136.511
131.888
127.217
122.514
117.793
113.073
108.372
103.707
99.099
94.568
90.132
85.812
81.628
77.601
73.749
70.087
66.626
63.377
60.355
57.579
55.065
52.834
50.895
49.247
47.892
46.833
46.069
45.603
45.432
45.544
45.932
46.597
47.542
48.777
50.304
52.106
54.152
56.412
58.908
61.682
64.777
68.233
72.014
76.053
80.36
84.906
89.603
94.427
99.26
103.883
108.432
113.182
118.24
124.004
130.813
138.218
145.875
153.982
161.847
169.593
178.936
188.469
195.936
199.074
191.842
174.437
154.187
138.265
136.941
152.806
176.953
200.917
216.389
221.163
221.345
220.957
222.118
224.504
225.214
223.923
221.41
218.119
214.831
211.555
208.133
205.087
202.592
200.279
197.874
195.099
191.866
188.409
184.844
181.105
177.175
173.096
168.935
164.796
160.721
156.665
152.603
148.529
144.455
140.423
136.462
132.584
128.804
125.131
121.574
118.147
114.861
111.724
108.744
105.923
103.266
100.779
98.465
96.331
94.373
92.58
90.942
89.449
88.088
86.853
85.733
84.715
83.788
82.94
82.163
81.446
80.781
80.16
79.578
79.03
78.515
78.034
77.592
77.194
76.849
76.569
76.366
76.256
76.258
76.392
76.68
77.146
77.816
78.716
79.874
81.319
83.079
85.185
87.664
90.546
93.859
97.63
101.888
106.656
111.96
117.822
124.264
131.303
138.954
147.23
156.138
165.682
175.862
186.674
198.108
210.151
222.785
235.987
249.73
263.981
278.706
293.865
309.412
325.299
341.475
357.887
374.477
391.185
407.95
424.709
441.399
457.957
474.314
490.405
506.163
521.521
536.411
550.765
564.512
577.587
589.925
601.466
612.153
621.932
630.751
638.565
645.335
651.03
655.622
659.087
661.403
662.549
662.506
661.263
658.81
655.14
650.242
644.113
636.763
628.21
618.48
607.603
595.588
582.455
568.241
552.988
536.747
519.592
501.596
482.858
463.515
443.701
423.559
403.229
382.815
362.414
342.096
321.91
301.945
282.26
262.894
243.92
225.35
207.144
189.257
171.55
153.838
136.034
117.983
99.454
80.419
60.929
41.28
22.116
3.733
-13.918
-30.843
-47.143
-62.984
-78.437
-94.182
-111.463
-130.53
-150.784
-171.137
-189.824
-205.381
-216.825
-222.465
-220.071
-208.581
-188.061
-159.701
-125.901
-88.624
-49.137
-9.167
29.16
64.293
95.292
122.136
145.796
166.808
185.1
200.688
213.715
224.269
232.459
238.075
240.486
239.422
234.966
227.27
216.666
203.525
188.138
170.935
152.538
133.423
114.022
94.766
75.897
57.637
40.21
23.739
8.305
-6.041
-19.311
-31.53
-42.696
-52.861
-62.091
-70.475
-78.178
-85.306
-91.937
-98.169
-104.037
-109.553
-114.732
-119.536
-123.895
-127.75
-131.023
-133.633
-135.53
-136.648
-136.913
-136.254
-134.576
-131.816
-127.945
-122.939
-116.798
-109.539
-101.184
-91.786
-81.42
-70.161
-58.085
-45.275
-31.807
-17.77
-3.262
11.619
26.77
42.09
57.483
72.857
88.117
103.175
117.945
132.347
146.307
159.755
172.617
184.823
196.307
207.007
216.868
225.84
233.874
240.931
246.977
251.984
255.932
258.805
260.591
261.284
260.883
259.394
256.825
253.192
248.513
242.811
236.116
228.458
219.873
210.398
200.072
188.939
177.04
164.42
151.128
137.208
122.71
107.68
92.17
76.226
59.898
43.234
26.28
9.082
-8.314
-25.864
-43.526
-61.26
-79.025
-96.784
-114.498
-132.131
-149.649
-167.017
-184.203
-201.176
-217.904
-234.36
-250.515
-266.344
-281.821
-296.921
-311.621
-325.898
-339.731
-353.098
-365.978
-378.353
-390.205
-401.516
-412.271
-422.455
-432.055
-441.059
-449.455
-457.233
-464.386
-470.906
-476.787
-482.025
-486.617
-490.562
-493.862
-496.519
-498.539
-499.928
-500.694
-500.848
-500.401
-499.368
-497.763
-495.602
-492.906
-489.693
-485.987
-481.811
-477.192
-472.156
-466.731
-460.948
-454.838
-448.432
-441.761
-434.86
-427.761
-420.497
-413.103
-405.611
-398.056
-390.471
-382.888
-375.341
-367.86
-360.476
-353.218
-346.116
-339.195
-332.482
-326.003
-319.78
-313.837
-308.195
-302.874
-297.892
-293.266
-289.012
-285.143
-281.669
-278.6
-275.944
-273.705
-271.887
-270.491
-269.517
-268.962
-268.822
-269.092
-269.765
-270.83
-272.279
-274.098
-276.275
-278.795
-281.642
-284.801
-288.253
-291.98
-295.964
-300.184
-304.62
-309.25
-314.053
-319.004
-324.081
-329.26
-334.516
-339.825
-345.161
-350.502
-355.823
-361.1
-366.313
-371.439
-376.458
-381.35
-386.099
-390.686
-395.097
-399.319
-403.339
-407.148
-410.735
-414.095
-417.222
-420.112
-422.762
-425.172
-427.343
-429.276
-430.977
-432.45
-433.701
-434.741
-435.578
-436.225
-436.694
-436.999
-437.157
-437.183
-437.094
-436.908
-436.644
-436.318
-435.949
-435.554
-435.15
-434.753
-434.377
-434.036
-433.743
-433.508
-433.34
-433.246
-433.232
-433.301
-433.455
-433.693
-434.013
-434.409
-434.875
-435.402
-435.978
-436.591
-437.225
-437.862
-438.483
-439.066
-439.589
-440.025
-440.348
-440.53
-440.543
-440.356
-439.94
-439.264
-438.298
-437.012
-435.378
-433.368
-430.955
-428.114
-424.823
-421.06
-416.806
-412.046
-406.765
-400.953
-394.601
-387.704
-380.26
-372.271
-363.74
-354.677
-345.092
-334.999
-324.418
-313.369
-301.879
-289.974
-277.687
-265.052
-252.106
-238.889
-225.443
-211.812
-198.041
-184.177
-170.267
-156.358
-142.498
-128.736
-115.116
-101.686
-88.491
-75.572
-62.972
-50.731
-38.885
-27.469
-16.516
-6.055
3.886
13.286
22.122
30.378
38.041
45.1
51.549
57.385
62.609
67.226
71.244
74.674
77.533
79.839
81.612
82.876
83.659
83.987
83.892
83.404
82.556
81.38
79.91
78.181
76.224
74.074
71.764
69.324
66.787
64.181
61.537
58.882
56.241
53.64
51.102
48.649
46.3
44.073
41.985
40.05
38.279
36.682
35.267
34.04
33.003
32.159
31.506
31.044
30.767
30.671
30.751
30.998
31.405
31.964
32.666
33.503
34.466
35.547
36.738
38.03
39.418
40.895
42.454
44.091
45.8
47.579
49.422
51.327
53.292
55.315
57.395
59.53
61.722
63.971
66.279
68.649
71.084
73.588
76.168
78.829
81.578
84.421
87.368
90.427
93.606
96.915
100.362
103.957
107.709
111.626
115.716
119.987
124.446
129.099
133.952
139.009
144.274
149.751
155.442
161.348
167.471
173.811
180.367
187.137
194.119
201.308
208.701
216.29
224.068
232.025
240.151
248.434
256.859
265.411
274.072
282.823
291.643
300.509
309.397
318.28
327.132
335.924
344.627
353.21
361.642
369.891
377.925
385.712
393.22
400.415
407.266
413.74
419.807
425.436
430.596
435.259
439.397
442.984
445.995
448.407
450.201
451.358
451.862
451.701
450.865
449.346
447.141
444.25
440.676
436.427
431.513
425.947
419.749
412.939
405.542
397.585
389.1
380.12
370.68
360.82
350.58
340.002
329.13
318.009
306.687
295.21
283.626
271.983
260.329
248.711
237.177
225.773
214.543
203.53
192.776
182.32
172.201
162.452
153.105
144.189
135.73
127.751
120.27
113.303
106.861
100.952
95.582
90.752
86.458
82.697
79.459
76.734
74.507
72.761
71.478
70.637
70.216
70.189
70.533
71.219
72.223
73.515
75.067
76.853
78.843
81.01
83.327
85.768
88.307
90.92
93.582
96.274
98.973
101.662
104.323
106.941
109.503
111.998
114.417
116.751
118.996
121.148
123.204
125.165
127.032
128.806
130.493
132.095
133.619
135.071
136.457
137.785
139.062
140.294
141.489
142.655
143.798
144.925
146.042
147.156
148.271
149.393
150.527
151.676
152.845
154.036
155.252
156.494
157.763
159.06
160.384
161.734
163.108
164.504
165.919
167.349
168.791
170.239
171.691
173.141
174.586
176.022
177.444
178.849
180.233
181.595
182.931
184.241
185.521
186.773
187.996
189.19
190.355
191.492
192.603
193.689
194.752
195.792
196.814
197.818
198.808
199.787
200.758
201.725
202.693
203.667
204.651
205.651
206.673
207.721
208.803
209.924
211.09
212.308
213.583
214.922
216.332
217.817
219.385
221.041
222.791
224.641
226.597
228.665
230.851
233.16
235.6
238.177
240.897
243.767
246.795
249.986
253.347
256.883
260.599
264.5
268.589
272.869
277.342
282.008
286.867
291.919
297.163
302.593
308.201
313.98
319.92
326.013
332.248
338.605
345.062
351.618
358.263
364.985
371.771
378.581
385.369
392.133
398.852
405.434
411.799
417.869
423.569
428.922
433.952
438.553
442.647
446.423
450.077
453.524
456.743
459.637
461.748
464.198
467.881
470.938
472.815
470.896
461.881
449.707
436.042
422.178
413.429
407.548
404.238
407.366
412.511
416.229
415.178
401.014
374.888
344.344
314.688
293.345
281.536
273.001
264.11
252.072
235.95
218.459
200.883
183.178
165.509
147.567
129.321
111.223
93.482
76.095
59.128
42.669
26.77
11.478
-3.174
-17.194
-30.553
-43.169
-54.989
-65.975
-76.092
-85.315
-93.618
-100.977
-107.379
-112.823
-117.312
-120.854
-123.462
-125.155
-125.955
-125.894
-125.005
-123.327
-120.903
-117.78
-114.009
-109.642
-104.738
-99.355
-93.553
-87.394
-80.943
-74.264
-67.419
-60.474
-53.49
-46.53
-39.653
-32.917
-26.376
-20.082
-14.08
-8.415
-3.125
1.758
6.205
10.193
13.706
16.731
19.262
21.297
22.842
23.905
24.5
24.646
24.366
23.689
22.646
21.273
19.607
17.693
15.572
13.293
10.903
8.453
5.993
3.575
1.248
-0.935
-2.926
-4.676
-6.141
-7.275
-8.041
-8.401
-8.322
-7.777
-6.741
-5.196
-3.128
-0.528
2.608
6.279
10.478
15.195
20.412
26.108
32.258
38.831
45.793
53.104
60.723
68.604
76.698
84.954
93.319
101.737
110.152
118.506
126.742
134.803
142.631
150.17
157.368
164.171
170.532
176.404
181.744
186.514
190.679
194.209
197.079
199.267
200.758
201.539
201.605
200.953
199.587
197.516
194.751
191.31
187.214
182.49
177.166
171.277
164.858
157.948
150.589
142.826
134.704
126.27
117.571
108.655
99.572
90.368
81.091
71.785
62.493
53.258
44.118
35.108
26.262
17.61
9.177
0.986
-6.943
-14.594
-21.957
-29.021
-35.783
-42.241
-48.398
-54.26
-59.834
-65.133
-70.172
-74.968
-79.54
-83.91
-88.1
-92.135
-96.04
-99.841
-103.564
-107.236
-110.883
-114.53
-118.202
-121.92
-125.706
-129.58
-133.557
-137.653
-141.879
-146.244
-150.755
-155.415
-160.226
-165.187
-170.292
-175.535
-180.906
-186.393
-191.981
-197.652
-203.389
-209.169
-214.97
-220.767
-226.535
-232.246
-237.874
-243.39
-248.767
-253.975
-258.988
-263.778
-268.317
-272.582
-276.547
-280.191
-283.492
-286.434
-288.999
-291.175
-292.95
-294.315
-295.266
-295.797
-295.908
-295.6
-294.878
-293.746
-292.214
-290.292
-287.993
-285.333
-282.329
-279.001
-275.368
-271.453
-267.279
-262.871
-258.255
-253.456
-248.501
-243.418
-238.234
-232.976
-227.671
-222.346
-217.027
-211.739
-206.504
-201.346
-196.285
-191.339
-186.527
-181.865
-177.365
-173.042
-168.907
-164.968
-161.235
-157.713
-154.408
-151.322
-148.458
-145.816
-143.395
-141.193
-139.205
-137.428
-135.856
-134.482
-133.3
-132.3
-131.475
-130.815
-130.31
-129.95
-129.723
-129.62
-129.63
-129.744
-129.953
-130.248
-130.622
-131.069
-131.584
-132.161
-132.796
-133.487
-134.233
-135.03
-135.88
-136.783
-137.74
-138.754
-139.828
-140.966
-142.171
-143.451
-144.809
-146.251
-147.785
-149.416
-151.153
-153.001
-154.97
-157.066
-159.299
-161.677
-164.208
-166.899
-169.758
-172.792
-176.005
-179.403
-182.989
-186.764
-190.73
-194.886
-199.229
-203.757
-208.465
-213.345
-218.39
-223.59
-228.934
-234.409
-240
-245.694
-251.472
-257.317
-263.211
-269.135
-275.067
-280.989
-286.877
-292.709
-298.464
-304.117
-309.645
-315.025
-320.232
-325.243
-330.037
-334.59
-338.883
-342.895
-346.609
-350.009
-353.078
-355.807
-358.183
-360.199
-361.851
-363.135
-364.051
-364.604
-364.799
-364.645
-364.154
-363.34
-362.22
-360.814
-359.142
-357.229
-355.101
-352.784
-350.308
-347.704
-345.004
-342.241
-339.451
-336.669
-333.93
-331.27
-328.726
-326.334
-324.129
-322.144
-320.413
-318.967
-317.837
-317.049
-316.628
-316.597
-316.975
-317.777
-319.015
-320.698
-322.831
-325.415
-328.445
-331.915
-335.815
-340.129
-344.841
-349.928
-355.365
-361.126
-367.18
-373.493
-380.03
-386.753
-393.622
-400.595
-407.629
-414.681
-421.704
-428.653
-435.482
-442.144
-448.595
-454.789
-460.681
-466.231
-471.396
-476.138
-480.421
-484.211
-487.479
-490.197
-492.343
-493.897
-494.843
-495.17
-494.87
-493.941
-492.381
-490.196
-487.394
-483.986
-479.987
-475.415
-470.292
-464.642
-458.492
-451.872
-444.812
-437.348
-429.513
-421.345
-412.883
-404.166
-395.233
-386.126
-376.886
-367.552
-358.167
-348.769
-339.399
-330.093
-320.888
-311.819
-302.917
-294.213
-285.735
-277.506
-269.549
-261.883
-254.524
-247.485
-240.777
-234.406
-228.379
-222.695
-217.357
-212.359
-207.698
-203.365
-199.353
-195.65
-192.243
-189.119
-186.262
-183.657
-181.287
-179.133
-177.176
-175.398
-173.779
-172.299
-170.938
-169.676
-168.494
-167.373
-166.295
-165.243
-164.201
-163.154
-162.09
-160.997
-159.865
-158.686
-157.453
-156.162
-154.81
-153.394
-151.915
-150.375
-148.775
-147.121
-145.416
-143.666
-141.878
-140.057
-138.211
-136.348
-134.473
-132.596
-130.724
-128.865
-127.027
-125.218
-123.446
-121.719
-120.045
-118.43
-116.883
-115.409
-114.014
-112.703
-111.482
-110.354
-109.321
-108.387
-107.552
-106.816
-106.179
-105.638
-105.192
-104.835
-104.564
-104.373
-104.259
-104.215
-104.237
-104.319
-104.457
-104.645
-104.88
-105.156
-105.47
-105.817
-106.191
-106.59
-107.009
-107.442
-107.886
-108.334
-108.782
-109.223
-109.652
-110.061
-110.443
-110.79
-111.093
-111.343
-111.532
-111.649
-111.685
-111.63
-111.476
-111.214
-110.835
-110.327
-109.682
-108.886
-107.929
-106.797
-105.478
-103.958
-102.222
-100.256
-98.046
-95.58
-92.844
-89.827
-86.516
-82.902
-78.975
-74.729
-70.16
-65.263
-60.038
-54.487
-48.615
-42.429
-35.941
-29.162
-22.109
-14.802
-7.26
0.496
8.446
16.567
24.838
33.231
41.72
50.281
58.88
67.484
76.05
84.53
92.881
101.058
109.021
116.733
124.154
131.244
137.976
144.329
150.281
155.812
160.888
165.458
169.502
173.023
176.04
178.59
180.708
182.413
183.747
184.778
185.548
186.088
186.395
186.415
186.139
185.594
184.837
183.98
183.083
182.148
181.178
180.166
179.111
178.049
176.947
175.687
174.244
172.653
171.029
169.6
168.487
167.716
167.314
167.25
167.548
168.33
169.667
171.633
174.37
177.934
182.435
188.162
195.277
203.862
214.007
225.569
238.383
252.694
268.955
287.299
307.654
329.934
353.582
379.317
409.186
442.314
476.369
507.279
528.164
539.51
547.35
557.984
580.352
614.063
650.299
682.225
702.2
709.391
710.425
709.219
708.857
710.117
710.103
707.952
704.351
699.228
692.695
684.417
673.258
659.442
644.524
629.328
614.151
599.677
586.568
575.83
569.121
566.527
566.466
567.858
569.952
572.012
573.733
574.396
572.601
568.074
561.746
554.282
546.261
538.084
529.652
521.179
513.317
506.255
499.726
493.579
487.647
481.899
476.585
471.808
467.505
463.701
460.455
457.798
455.788
454.421
453.621
453.336
453.528
454.157
455.2
456.628
458.391
460.446
462.75
465.255
467.922
470.712
473.589
476.516
479.458
482.378
485.232
487.979
490.577
492.975
495.119
496.955
498.428
499.489
500.095
500.203
499.773
498.771
497.162
494.919
492.018
488.438
484.162
479.176
473.473
467.049
459.904
452.045
443.482
434.227
424.297
413.716
402.507
390.7
378.325
365.417
352.016
338.163
323.9
309.275
294.334
279.129
263.708
248.125
232.43
216.675
200.909
185.18
169.536
154.021
138.676
123.54
108.65
94.037
79.731
65.757
52.136
38.888
26.025
13.559
1.494
-10.164
-21.418
-32.271
-42.73
-52.804
-62.506
-71.85
-80.852
-89.53
-97.903
-105.991
-113.814
-121.393
-128.747
-135.897
-142.861
-149.657
-156.301
-162.807
-169.188
-175.452
-181.607
-187.658
-193.607
-199.451
-205.186
-210.806
-216.298
-221.651
-226.848
-231.87
-236.695
-241.301
-245.66
-249.745
-253.528
-256.977
-260.063
-262.753
-265.016
-266.821
-268.139
-268.941
-269.199
-268.89
-267.988
-266.476
-264.333
-261.546
-258.103
-253.995
-249.217
-243.767
-237.647
-230.861
-223.419
-215.332
-206.615
-197.287
-187.368
-176.884
-165.859
-154.324
-142.309
-129.847
-116.972
-103.721
-90.13
-76.237
-62.08
-47.697
-33.126
-18.402
-3.563
11.359
26.33
41.32
56.301
71.245
86.13
100.932
115.635
130.221
144.675
158.988
173.15
187.154
200.996
214.674
228.186
241.534
254.72
267.747
280.619
293.342
305.92
318.359
330.667
342.847
354.907
366.852
378.685
390.41
402.029
413.544
424.954
436.255
447.444
458.514
469.457
480.263
490.919
501.41
511.72
521.831
531.722
541.372
550.756
559.85
568.628
577.062
585.127
592.794
600.034
606.82
613.125
618.92
624.18
628.877
632.988
636.487
639.353
641.563
643.097
643.938
644.069
643.476
642.146
640.07
637.241
633.652
629.302
624.191
618.321
611.696
604.326
596.219
587.389
577.851
567.623
556.723
545.173
532.998
520.221
506.87
492.972
478.557
463.655
448.299
432.521
416.354
399.833
382.993
365.87
348.5
330.919
313.164
295.272
277.279
259.223
241.139
223.063
205.029
187.073
169.227
151.524
133.995
116.668
99.572
82.735
66.18
49.933
34.014
18.445
3.245
-11.569
-25.981
-39.977
-53.544
-66.67
-79.347
-91.566
-103.322
-114.61
-125.426
-135.771
-145.643
-155.045
-163.981
-172.456
-180.475
-188.047
-195.18
-201.885
-208.171
-214.052
-219.538
-224.643
-229.38
-233.762
-237.802
-241.514
-244.912
-248.01
-250.821
-253.359
-255.638
-257.671
-259.471
-261.052
-262.426
-263.607
-264.607
-265.439
-266.114
-266.646
-267.046
-267.326
-267.497
-267.57
-267.557
-267.467
-267.312
-267.101
-266.844
-266.553
-266.235
-265.902
-265.564
-265.231
-264.913
-264.621
-264.365
-264.158
-264.008
-263.929
-263.931
-264.025
-264.223
-264.534
-264.97
-265.542
-266.258
-267.129
-268.162
-269.367
-270.75
-272.316
-274.072
-276.02
-278.165
-280.506
-283.045
-285.781
-288.711
-291.832
-295.141
-298.631
-302.297
-306.131
-310.123
-314.265
-318.544
-322.949
-327.467
-332.085
-336.786
-341.557
-346.383
-351.247
-356.134
-361.026
-365.91
-370.767
-375.584
-380.345
-385.035
-389.642
-394.152
-398.556
-402.846
-407.015
-411.059
-414.974
-418.763
-422.426
-425.968
-429.393
-432.708
-435.92
-439.04
-442.077
-445.044
-447.952
-450.816
-453.649
-456.468
-459.289
-462.129
-465.003
-467.925
-470.913
-473.98
-477.14
-480.408
-483.795
-487.311
-490.966
-494.77
-498.729
-502.845
-507.117
-511.54
-516.107
-520.804
-525.611
-530.504
-535.454
-540.431
-545.402
-550.332
-555.185
-559.921
-564.502
-568.891
-573.048
-576.929
-580.485
-583.66
-586.398
-588.643
-590.337
-591.42
-591.831
-591.505
-590.39
-588.443
-585.62
-581.874
-577.151
-571.384
-564.527
-556.556
-547.455
-537.223
-525.871
-513.412
-499.903
-485.437
-470.102
-453.987
-437.145
-419.581
-401.315
-382.379
-362.805
-342.643
-321.898
-300.521
-278.494
-255.816
-232.474
-208.463
-183.701
-158.025
-131.321
-103.522
-74.639
-44.797
-14.115
17.291
49.241
81.53
113.872
145.886
177.268
207.783
237.175
265.214
291.574
315.822
337.622
356.73
372.984
386.356
396.83
404.394
409.166
411.344
411.22
409.193
405.569
400.56
394.401
387.315
379.593
371.621
363.694
356.019
348.774
342.062
335.984
330.647
326.048
322.095
318.646
315.499
312.525
309.677
306.899
304.143
301.341
298.386
295.222
291.851
288.261
284.447
280.4
276.092
271.551
266.849
262.067
257.295
252.588
247.957
243.408
238.941
234.546
230.211
225.899
221.552
217.122
212.576
207.878
203.005
197.918
192.565
186.9
180.88
174.468
167.64
160.371
152.641
144.442
135.771
126.636
117.052
107.033
96.594
85.753
74.53
62.951
51.046
38.848
26.391
13.718
0.873
-12.091
-25.123
-38.165
-51.16
-64.049
-76.773
-89.27
-101.482
-113.348
-124.811
-135.814
-146.302
-156.22
-165.52
-174.153
-182.077
-189.251
-195.641
-201.216
-205.952
-209.828
-212.829
-214.946
-216.173
-216.511
-215.966
-214.549
-212.277
-209.17
-205.255
-200.564
-195.134
-189.008
-182.232
-174.856
-166.934
-158.522
-149.68
-140.469
-130.95
-121.189
-111.247
-101.191
-91.084
-80.99
-70.971
-61.089
-51.403
-41.967
-32.837
-24.063
-15.69
-7.761
-0.314
6.617
13.003
18.818
24.044
28.666
32.673
36.063
38.834
40.994
42.554
43.528
43.939
43.809
43.169
42.048
40.483
38.512
36.173
33.509
30.563
27.382
24.01
20.493
16.879
13.213
9.542
5.913
2.365
-1.062
-4.329
-7.402
-10.243
-12.82
-15.107
-17.086
-18.724
-19.994
-20.874
-21.343
-21.403
-21.071
-20.332
-19.173
-17.641
-15.776
-13.615
-11.209
-8.55
-5.598
-2.411
0.927
4.545
8.596
12.943
17.566
22.469
27.228
32.875
40.413
48.336
56.169
61.174
60.077
56.446
52.651
52.232
60.064
71.797
83.738
93.354
96.473
96.052
95.094
94.257
95.369
97.358
98.847
100.092
100.917
101.411
101.851
102.055
101.881
101.377
100.557
99.408
97.936
96.158
94.083
91.741
89.167
86.354
83.293
79.993
76.457
72.689
68.696
64.478
60.035
55.376
50.504
45.425
40.143
34.664
28.991
23.129
17.083
10.858
4.46
-2.106
-8.834
-15.718
-22.752
-29.93
-37.244
-44.69
-52.259
-59.945
-67.741
-75.64
-83.633
-91.713
-99.869
-108.094
-116.378
-124.71
-133.081
-141.482
-149.901
-158.329
-166.756
-175.172
-183.569
-191.935
-200.263
-208.542
-216.763
-224.919
-232.999
-240.996
-248.902
-256.708
-264.406
-271.988
-279.444
-286.767
-293.947
-300.972
-307.834
-314.521
-321.021
-327.322
-333.413
-339.28
-344.911
-350.292
-355.409
-360.249
-364.796
-369.036
-372.954
-376.534
-379.762
-382.622
-385.099
-387.178
-388.845
-390.085
-390.885
-391.23
-391.108
-390.508
-389.417
-387.826
-385.726
-383.109
-379.97
-376.306
-372.113
-367.393
-362.148
-356.382
-350.101
-343.313
-336.03
-328.263
-320.027
-311.338
-302.215
-292.678
-282.749
-272.451
-261.809
-250.849
-239.597
-228.082
-216.33
-204.37
-192.233
-179.945
-167.537
-155.038
-142.476
-129.88
-117.276
-104.692
-92.153
-79.683
-67.303
-55.037
-42.902
-30.917
-19.098
-7.459
3.988
15.231
26.262
37.072
47.656
58.01
68.133
78.024
87.678
97.091
106.264
115.198
123.898
132.365
140.589
148.576
156.349
163.923
171.316
178.53
185.531
192.313
198.908
205.286
211.373
217.108
222.424
227.306
231.84
236.04
239.801
243.215
246.626
250.092
253.499
256.883
259.846
263.108
268.847
276.533
284.168
288.385
282.937
268.331
250.799
236.597
234.607
245.213
260.061
272.71
276.15
269.313
258.474
247.447
238.899
233.589
228.985
223.986
218.699
213.07
207.52
202.169
196.707
191.071
185.353
179.581
173.777
167.99
162.272
156.692
151.344
146.278
141.502
137.036
132.913
129.159
125.8
122.856
120.338
118.258
116.633
115.472
114.781
114.558
114.801
115.499
116.642
118.211
120.187
122.546
125.262
128.305
131.644
135.241
139.062
143.064
147.208
151.45
155.745
160.046
164.306
168.477
172.512
176.363
179.985
183.33
186.356
189.017
191.272
193.083
194.41
195.222
195.487
195.18
194.28
192.77
190.639
187.882
184.503
180.507
175.903
170.704
164.929
158.599
151.74
144.379
136.539
128.243
119.516
110.391
100.911
91.125
81.087
70.843
60.459
50.028
39.641
29.39
19.342
9.534
0.013
-9.12
-17.793
-26.002
-33.72
-40.923
-47.588
-53.609
-58.895
-63.521
-67.427
-70.277
-72.074
-73.058
-73.158
-72.67
-71.121
-66.463
-58.996
-50.941
-45.654
-49.097
-62.305
-79.747
-93.46
-93.897
-76.989
-47.688
-16.12
8.295
20.079
20.066
16.177
14.525
18.44
29.155
42.442
55.973
69.976
84.791
102.341
122.55
144.252
168.231
197.453
235.803
283.85
335.002
375.258
390.193
372.524
325.13
261.394
196.013
137.372
88.101
45.557
7.676
-23.789
-45.859
-55.903
-54.172
-43.066
-26.098
-7.332
10.351
24.451
32.964
35.186
31.341
22.206
9.365
-5.193
-20.147
-34.396
-47.124
-58.119
-67.32
-74.817
-81.1
-86.87
-92.463
-97.959
-103.311
-108.252
-112.642
-116.52
-119.803
-122.277
-124.007
-125.389
-126.589
-127.635
-128.694
-129.437
-130.628
-134.639
-141.071
-147.813
-151.446
-145.377
-129.873
-111.672
-97.421
-96.556
-109.927
-128.583
-145.579
-153.491
-150.821
-144.246
-137.931
-134.649
-135.32
-137.221
-139.063
-140.932
-142.71
-144.781
-147.23
-149.658
-151.911
-154.017
-155.928
-157.587
-158.962
-160.024
-160.759
-161.182
-161.268
-160.941
-160.149
-158.854
-157.02
-154.617
-151.617
-147.99
-143.716
-138.789
-133.205
-126.964
-120.064
-112.51
-104.306
-95.459
-85.985
-75.9
-65.222
-53.979
-42.204
-29.941
-17.241
-4.163
9.236
22.894
36.75
50.741
64.798
78.853
92.848
106.714
120.377
133.756
146.75
159.271
171.261
182.67
193.471
203.66
213.223
222.155
230.479
238.195
245.28
251.694
257.344
262.142
266.036
269.006
271.071
272.256
272.532
271.863
270.212
267.498
263.658
258.617
252.236
244.439
235.249
224.745
213.13
200.651
187.481
173.761
159.599
145.074
130.328
115.509
100.735
86.175
72.003
58.422
45.734
34.169
23.815
14.684
6.643
-0.522
-6.938
-12.7
-17.901
-22.583
-26.822
-30.69
-34.204
-37.405
-40.373
-43.222
-46.157
-49.347
-52.842
-56.632
-60.613
-64.61
-68.51
-72.225
-75.648
-78.72
-81.389
-83.612
-85.406
-86.791
-87.751
-88.243
-88.182
-87.483
-86.123
-84.109
-81.478
-78.305
-74.643
-70.538
-66.055
-61.238
-56.116
-50.712
-45.019
-39.018
-32.713
-26.119
-19.262
-12.175
-4.882
2.602
10.259
18.077
26.043
34.143
42.37
50.712
59.151
67.663
76.218
84.778
93.311
101.785
110.167
118.428
126.536
134.464
142.186
149.678
156.915
163.873
170.529
176.86
182.845
188.465
193.705
198.549
202.986
207.006
210.601
213.768
216.504
218.807
220.679
222.122
223.14
223.739
223.924
223.705
223.09
222.09
220.719
218.988
216.914
214.511
211.798
208.791
205.508
201.967
198.186
194.181
189.97
185.568
180.992
176.258
171.379
166.367
161.236
155.994
150.651
145.214
139.687
134.075
128.379
122.603
116.745
110.807
104.786
98.682
92.492
86.216
79.85
73.393
66.842
60.196
53.452
46.609
39.668
32.626
25.486
18.249
10.916
3.493
-4.015
-11.603
-19.262
-26.981
-34.749
-42.552
-50.373
-58.195
-65.997
-73.756
-81.448
-89.048
-96.528
-103.858
-111.008
-117.949
-124.647
-131.073
-137.193
-142.978
-148.396
-153.418
-158.016
-162.162
-165.832
-169.003
-171.653
-173.766
-175.324
-176.316
-176.732
-176.565
-175.814
-174.479
-172.566
-170.082
-167.042
-163.462
-159.365
-154.776
-149.725
-144.247
-138.38
-132.165
-125.649
-118.88
-111.91
-104.793
-97.585
-90.344
-83.128
-75.999
-69.015
-62.237
-55.724
-49.535
-43.726
-38.35
-33.462
-29.108
-25.336
-22.187
-19.699
-17.907
-16.839
-16.52
-16.968
-18.198
-20.218
-23.028
-26.627
-31.004
-36.144
-42.026
-48.621
-55.899
-63.821
-72.344
-81.421
-90.999
-101.023
-111.434
-122.169
-133.164
-144.351
-155.663
-167.029
-178.38
-189.646
-200.758
-211.648
-222.249
-232.497
-242.33
-251.688
-260.515
-268.759
-276.371
-283.307
-289.528
-294.999
-299.691
-303.578
-306.643
-308.87
-310.253
-310.787
-310.475
-309.324
-307.344
-304.552
-300.969
-296.617
-291.527
-285.727
-279.251
-272.137
-264.42
-256.14
-247.338
-238.055
-228.331
-218.208
-207.727
-196.93
-185.855
-174.542
-163.027
-151.346
-139.532
-127.616
-115.624
-103.583
-91.515
-79.439
-67.371
-55.326
-43.313
-31.342
-19.417
-7.541
4.284
16.062
27.795
39.489
51.149
62.782
74.395
85.992
97.581
109.164
120.746
132.327
143.909
155.49
167.069
178.641
190.202
201.744
213.26
224.738
236.163
247.518
258.784
269.938
280.955
291.808
302.468
312.903
323.08
332.965
342.521
351.709
360.492
368.826
376.672
383.988
390.732
396.866
402.354
407.161
411.256
414.614
417.212
419.031
420.06
420.286
419.699
418.294
416.064
413.008
409.124
404.414
398.885
392.549
385.424
377.539
368.927
359.628
349.685
339.144
328.052
316.456
304.406
291.949
279.129
265.999
252.616
239.051
225.386
211.693
198.03
184.445
170.967
157.609
144.363
131.218
118.149
105.155
92.252
79.488
66.945
54.706
42.859
31.458
20.52
10.067
0.128
-9.254
-18.021
-26.079
-33.306
-39.56
-44.672
-48.528
-51.079
-52.356
-52.477
-51.607
-49.954
-47.681
-44.903
-41.727
-38.247
-34.57
-30.805
-27.103
-23.646
-20.657
-18.411
-17.119
-16.916
-17.832
-19.782
-22.606
-26.076
-30
-34.231
-38.645
-43.155
-47.683
-52.158
-56.496
-60.6
-64.322
-67.461
-69.853
-71.384
-72.02
-71.819
-70.901
-69.448
-67.621
-65.558
-63.374
-61.14
-58.912
-56.727
-54.615
-52.598
-50.732
-49.113
-47.824
-46.944
-46.51
-46.521
-46.948
-47.733
-48.82
-50.161
-51.718
-53.477
-55.433
-57.598
-59.993
-62.648
-65.579
-68.787
-72.268
-76.008
-80.001
-84.244
-88.738
-93.485
-98.488
-103.747
-109.26
-115.02
-121.009
-127.208
-133.585
-140.108
-146.741
-153.451
-160.204
-166.969
-173.715
-180.411
-187.027
-193.534
-199.9
-206.096
-212.087
-217.842
-223.33
-228.519
-233.38
-237.885
-242.01
-245.729
-249.022
-251.869
-254.255
-256.166
-257.591
-258.52
-258.947
-258.87
-258.289
-257.204
-255.624
-253.555
-251.009
-248.002
-244.549
-240.671
-236.39
-231.729
-226.713
-221.369
-215.725
-209.81
-203.655
-197.291
-190.752
-184.072
-177.285
-170.428
-163.534
-156.641
-149.781
-142.989
-136.298
-129.739
-123.342
-117.137
-111.15
-105.407
-99.931
-94.742
-89.861
-85.302
-81.081
-77.207
-73.69
-70.536
-67.747
-65.325
-63.268
-61.57
-60.226
-59.226
-58.559
-58.211
-58.165
-58.405
-58.909
-59.656
-60.623
-61.785
-63.116
-64.589
-66.177
-67.851
-69.584
-71.346
-73.109
-74.847
-76.531
-78.136
-79.636
-81.007
-82.227
-83.276
-84.132
-84.78
-85.203
-85.389
-85.325
-85.003
-84.415
-83.556
-82.424
-81.019
-79.342
-77.397
-75.19
-72.73
-70.025
-67.089
-63.935
-60.578
-57.035
-53.325
-49.466
-45.479
-41.385
-37.205
-32.961
-28.675
-24.37
-20.067
-15.787
-11.551
-7.381
-3.294
0.689
4.551
8.275
11.846
15.249
18.472
21.503
24.33
26.946
29.342
31.513
33.452
35.156
36.624
37.854
38.847
39.604
40.127
40.421
40.491
40.342
39.98
39.414
38.649
37.695
36.56
35.252
33.782
32.157
30.387
28.481
26.45
24.302
22.047
19.694
17.252
14.731
12.14
9.489
6.785
4.039
1.259
-1.545
-4.365
-7.192
-10.016
-12.83
-15.625
-18.391
-21.121
-23.807
-26.438
-29.008
-31.507
-33.928
-36.26
-38.496
-40.626
-42.642
-44.535
-46.295
-47.914
-49.385
-50.697
-51.844
-52.817
-53.611
-54.217
-54.632
-54.848
-54.862
-54.67
-54.269
-53.658
-52.834
-51.8
-50.554
-49.1
-47.44
-45.579
-43.522
-41.275
-38.846
-36.243
-33.477
-30.558
-27.5
-24.315
-21.018
-17.626
-14.156
-10.626
-7.054
-3.462
0.132
3.706
7.238
10.708
14.093
17.372
20.523
23.525
26.357
28.998
31.429
33.631
35.584
37.273
38.681
39.793
40.596
41.077
41.227
41.036
40.498
39.608
38.364
36.765
34.813
32.513
29.872
26.9
23.609
20.012
16.129
11.976
7.577
2.954
-1.867
-6.859
-11.993
-17.239
-22.564
-27.936
-33.32
-38.681
-43.983
-49.189
-54.262
-59.166
-63.864
-68.319
-72.496
-76.359
-79.874
-83.01
-85.734
-88.02
-89.839
-91.168
-91.986
-92.276
-92.022
-91.212
-89.84
-87.9
-85.392
-82.316
-78.68
-74.491
-69.763
-64.51
-58.752
-52.511
-45.81
-38.679
-31.147
-23.247
-15.014
-6.484
2.304
11.31
20.492
29.808
39.215
48.669
58.127
67.545
76.882
86.098
95.152
104.009
112.634
120.996
129.065
136.815
144.222
151.268
157.935
164.21
170.084
175.549
180.604
185.249
189.489
193.331
196.786
199.867
202.59
204.973
207.039
208.81
210.312
211.574
212.624
213.495
214.221
214.834
215.367
215.854
216.327
216.816
217.35
217.957
218.66
219.482
220.445
221.566
222.862
224.348
226.033
227.925
230.029
232.345
234.872
237.603
240.53
243.64
246.921
250.357
253.932
257.627
261.419
265.286
269.201
273.139
277.07
280.964
284.786
288.505
292.089
295.509
298.737
301.745
304.512
307.018
309.246
311.182
312.811
314.124
315.109
315.756
316.051
315.984
315.547
314.736
313.558
312.02
310.139
307.934
305.43
302.657
299.647
296.423
293.008
289.416
285.652
281.739
277.716
273.63
269.544
265.501
261.531
257.666
253.93
250.319
246.805
243.315
239.758
236.088
232.292
228.39
224.458
220.525
216.598
212.698
208.792
204.902
201.115
197.438
193.866
190.445
187.211
184.39
182.403
181.325
180.968
181.133
181.431
181.818
182.677
183.96
185.267
186.674
188.523
191.343
196.078
202.612
209.574
216.034
221.459
225.063
226.147
223.741
216.297
203.679
187.429
168.762
148.597
127.874
107.07
86.951
68.905
53.262
39.248
26.483
14.751
3.899
-5.765
-14.23
-21.929
-28.795
-34.466
-38.942
-42.28
-44.647
-46.409
-47.687
-48.413
-48.688
-48.666
-48.479
-48.31
-48.228
-48.25
-48.486
-49.091
-50.211
-51.908
-54.067
-56.48
-58.998
-61.534
-64.05
-66.532
-68.928
-71.206
-73.392
-75.541
-77.713
-79.933
-82.176
-84.384
-86.505
-88.53
-90.503
-92.503
-94.591
-96.804
-99.171
-101.721
-104.492
-107.505
-110.741
-114.153
-117.7
-121.356
-125.108
-128.958
-132.897
-136.909
-140.969
-145.052
-149.131
-153.177
-157.158
-161.035
-164.765
-168.314
-171.653
-174.762
-177.619
-180.201
-182.484
-184.444
-186.062
-187.322
-188.203
-188.685
-188.753
-188.394
-187.599
-186.364
-184.687
-182.57
-180.016
-177.036
-173.639
-169.839
-165.651
-161.092
-156.183
-150.945
-145.402
-139.581
-133.51
-127.221
-120.747
-114.125
-107.393
-100.59
-93.754
-86.928
-80.152
-73.468
-66.919
-60.545
-54.389
-48.492
-42.895
-37.639
-32.763
-28.304
-24.297
-20.774
-17.766
-15.3
-13.401
-12.091
-11.387
-11.305
-11.859
-13.058
-14.908
-17.413
-20.572
-24.383
-28.837
-33.924
-39.631
-45.939
-52.829
-60.276
-68.254
-76.733
-85.679
-95.058
-104.831
-114.957
-125.393
-136.093
-147.013
-158.102
-169.312
-180.593
-191.894
-203.166
-214.359
-225.421
-236.306
-246.964
-257.349
-267.417
-277.122
-286.425
-295.284
-303.663
-311.527
-318.844
-325.585
-331.723
-337.235
-342.1
-346.301
-349.826
-352.662
-354.805
-356.249
-356.997
-357.051
-356.42
-355.114
-353.148
-350.539
-347.307
-343.476
-339.072
-334.123
-328.658
-322.711
-316.315
-309.505
-302.318
-294.792
-286.964
-278.874
-270.561
-262.064
-253.421
-244.671
-235.853
-227.004
-218.16
-209.357
-200.628
-192.006
-183.523
-175.207
-167.086
-159.184
-151.525
-144.128
-137.012
-130.191
-123.679
-117.486
-111.619
-106.085
-100.886
-96.022
-91.493
-87.294
-83.42
-79.863
-76.613
-73.661
-70.992
-68.595
-66.452
-64.55
-62.869
-61.394
-60.105
-58.984
-58.012
-57.169
-56.436
-55.793
-55.223
-54.706
-54.226
-53.765
-53.307
-52.837
-52.343
-51.812
-51.233
-50.596
-49.893
-49.119
-48.267
-47.334
-46.317
-45.217
-44.033
-42.768
-41.423
-40.004
-38.516
-36.965
-35.358
-33.702
-32.007
-30.282
-28.537
-26.781
-25.025
-23.281
-21.558
-19.868
-18.22
-16.626
-15.095
-13.636
-12.256
-10.964
-9.765
-8.665
-7.667
-6.776
-5.992
-5.317
-4.748
-4.284
-3.921
-3.655
-3.479
-3.386
-3.367
-3.414
-3.515
-3.66
-3.835
-4.027
-4.223
-4.407
-4.565
-4.68
-4.735
-4.715
-4.602
-4.379
-4.03
-3.537
-2.885
-2.057
-1.039
0.184
1.626
3.298
5.213
7.38
9.808
12.505
15.476
18.726
22.256
26.069
30.164
34.537
39.185
44.103
49.283
54.715
60.391
66.296
72.417
78.738
85.243
91.912
98.726
105.662
112.698
119.81
126.972
134.159
141.344
148.5
155.598
162.61
169.508
176.262
182.844
189.226
195.38
201.28
206.899
212.213
217.196
221.826
226.082
229.944
233.393
236.411
238.985
241.101
242.748
243.916
244.599
244.793
244.493
243.701
242.419
240.651
238.403
235.685
232.509
228.887
224.835
220.372
215.516
210.29
204.718
198.823
192.632
186.173
179.474
172.564
165.474
158.234
150.874
143.426
135.919
128.386
120.856
113.358
105.923
98.577
91.347
84.261
77.34
70.609
64.089
57.797
51.753
45.971
40.464
35.244
30.32
25.697
21.381
17.373
13.672
10.276
7.178
4.372
1.848
-0.407
-2.405
-4.163
-5.697
-7.026
-8.172
-9.155
-9.999
-10.727
-11.366
-11.94
-12.476
-13.002
-13.545
-14.131
-14.788
-15.543
-16.423
-17.454
-18.661
-20.069
-21.701
-23.58
-25.726
-28.158
-30.894
-33.948
-37.334
-41.063
-45.143
-49.58
-54.378
-59.539
-65.061
-70.941
-77.172
-83.747
-90.652
-97.875
-105.399
-113.205
-121.271
-129.574
-138.086
-146.781
-155.626
-164.59
-173.637
-182.732
-191.836
-200.91
-209.912
-218.802
-227.536
-236.072
-244.367
-252.377
-260.06
-267.375
-274.279
-280.734
-286.702
-292.145
-297.03
-301.323
-304.994
-308.016
-310.364
-312.015
-312.95
-313.152
-312.61
-311.314
-309.259
-306.441
-302.863
-298.53
-293.451
-287.64
-281.113
-273.892
-266
-257.468
-248.326
-238.611
-228.36
-217.614
-206.419
-194.82
-182.864
-170.603
-158.086
-145.367
-132.497
-119.531
-106.521
-93.521
-80.584
-67.761
-55.104
-42.662
-30.484
-18.616
-7.104
4.009
14.685
24.883
34.571
43.715
52.286
60.26
67.614
74.33
80.394
85.795
90.526
94.584
97.969
100.686
102.74
104.144
104.911
105.057
104.6
103.563
101.969
99.843
97.212
94.105
90.552
86.584
82.232
77.529
72.508
67.203
61.648
55.876
49.923
43.821
37.603
31.304
24.953
18.582
12.22
5.895
-0.368
-6.543
-12.608
-18.542
-24.327
-29.945
-35.382
-40.623
-45.66
-50.482
-55.082
-59.454
-63.594
-67.5
-71.169
-74.601
-77.797
-80.759
-83.489
-85.991
-88.268
-90.327
-92.173
-93.813
-95.255
-96.506
-97.574
-98.468
-99.197
-99.768
-100.192
-100.475
-100.626
-100.651
-100.559
-100.354
-100.043
-99.63
-99.117
-98.508
-97.805
-97.006
-96.112
-95.121
-94.03
-92.836
-91.536
-90.125
-88.598
-86.949
-85.173
-83.264
-81.214
-79.018
-76.667
-74.156
-71.475
-68.618
-65.578
-62.347
-58.919
-55.287
-51.445
-47.388
-43.111
-38.61
-33.883
-28.927
-23.742
-18.328
-12.689
-6.826
-0.747
5.542
12.032
18.712
25.571
32.594
39.767
47.074
54.496
62.015
69.611
77.263
84.948
92.644
100.327
107.973
115.558
123.055
130.44
137.688
144.773
151.67
158.353
164.8
170.984
176.884
182.476
187.739
192.653
197.199
201.36
205.12
208.466
211.387
213.874
215.919
217.518
218.668
219.369
219.623
219.434
218.809
217.755
216.283
214.406
212.137
209.494
206.494
203.156
199.5
195.548
191.324
186.85
182.153
177.256
172.188
166.974
161.642
156.22
150.735
145.214
139.684
134.172
128.703
123.302
117.992
112.794
107.728
102.814
98.068
93.504
89.136
84.975
81.03
77.306
73.809
70.541
67.502
64.692
62.106
59.739
57.586
55.637
53.882
52.312
50.912
49.67
48.571
47.597
46.734
45.962
45.263
44.618
44.01
43.417
42.822
42.207
41.554
40.845
40.066
39.201
38.237
37.164
35.97
34.648
33.192
31.599
29.866
27.994
25.985
23.845
21.579
19.196
16.707
14.123
11.458
8.727
5.947
3.135
0.312
-2.502
-5.286
-8.017
-10.672
-13.227
-15.658
-17.942
-20.054
-21.97
-23.668
-25.126
-26.322
-27.236
-27.851
-28.149
-28.115
-27.739
-27.009
-25.917
-24.461
-22.636
-20.444
-17.887
-14.972
-11.708
-8.104
-4.175
0.064
4.595
9.398
14.451
19.729
25.207
30.859
36.655
42.565
48.559
54.605
60.672
66.726
72.736
78.668
84.492
90.175
95.687
101
106.086
110.92
115.477
119.737
123.68
127.292
130.558
133.469
136.017
138.198
140.011
141.458
142.543
143.274
143.662
143.719
143.46
142.904
142.07
140.981
139.661
138.135
136.43
134.575
132.599
130.533
128.407
126.254
124.104
121.99
119.942
117.991
116.165
114.494
113.004
111.719
110.663
109.856
109.315
109.057
109.093
109.433
110.085
111.052
112.335
113.932
115.838
118.046
120.546
123.324
126.366
129.655
133.17
136.89
140.792
144.85
149.038
153.327
157.689
162.092
166.505
170.898
175.237
179.491
183.627
187.614
191.42
195.016
198.372
201.46
204.254
206.729
208.863
210.634
212.024
213.017
213.598
213.755
213.48
212.763
211.602
209.991
207.932
205.425
202.475
199.086
195.266
191.027
186.378
181.334
175.909
170.122
163.989
157.533
150.773
143.733
136.436
128.908
121.174
113.261
105.196
97.007
88.721
80.367
71.972
63.564
55.171
46.821
38.539
30.352
22.286
14.366
6.617
-0.938
-8.276
-15.375
-22.215
-28.774
-35.036
-40.981
-46.594
-51.861
-56.767
-61.301
-65.452
-69.212
-72.573
-75.531
-78.082
-80.223
-81.955
-83.28
-84.2
-84.721
-84.85
-84.596
-83.968
-82.978
-81.64
-79.967
-77.977
-75.687
-73.114
-70.28
-67.204
-63.91
-60.419
-56.755
-52.943
-49.006
-44.969
-40.856
-36.691
-32.499
-28.301
-24.121
-19.98
-15.9
-11.899
-7.997
-4.21
-0.552
2.965
6.33
9.535
12.573
15.44
18.131
20.648
22.992
25.165
27.172
29.022
30.726
32.299
33.757
35.114
36.386
37.587
38.733
39.845
40.941
42.042
43.17
44.345
45.592
46.941
48.418
50.049
51.851
53.834
56.014
58.413
61.057
63.979
67.202
70.738
74.599
78.794
83.324
88.19
93.381
98.864
104.61
110.583
116.758
123.139
129.696
136.378
143.091
149.686
156.064
162.184
168.03
173.626
178.953
183.9
188.446
192.685
196.575
200.012
202.665
203.878
203.384
201.376
198.095
193.924
189.397
184.998
181.772
181.382
184.601
191.369
201.248
213.079
225.586
237.547
246.848
250.906
248.298
238.451
221.38
198.166
170.088
138.775
106.978
77.402
51.731
31.127
16.277
7.167
3.483
4.053
6.597
9.237
10.817
10.447
7.508
1.429
-8.124
-20.584
-34.581
-49.071
-63.448
-77.336
-90.527
-102.575
-113.078
-122.127
-130.182
-137.623
-144.632
-151.208
-157.236
-162.752
-167.859
-172.561
-176.8
-180.493
-183.603
-186.173
-188.304
-190.077
-191.536
-192.707
-193.604
-194.254
-194.693
-194.952
-195.052
-195.006
-194.828
-194.531
-194.132
-193.648
-193.094
-192.478
-191.805
-191.076
-190.296
-189.475
-188.625
-187.752
-186.86
-185.947
-185.011
-184.048
-183.052
-182.017
-180.932
-179.783
-178.558
-177.242
-175.823
-174.284
-172.611
-170.787
-168.795
-166.618
-164.241
-161.649
-158.828
-155.765
-152.447
-148.862
-145.001
-140.854
-136.414
-131.672
-126.623
-121.264
-115.591
-109.603
-103.3
-96.687
-89.766
-82.545
-75.032
-67.237
-59.175
-50.858
-42.305
-33.533
-24.563
-15.416
-6.115
3.317
12.855
22.474
32.148
41.852
51.559
61.242
70.877
80.437
89.897
99.229
108.41
117.413
126.215
134.79
143.115
151.166
158.919
166.353
173.444
180.172
186.516
192.457
197.976
203.056
207.682
211.836
215.507
218.68
221.345
223.489
225.104
226.181
226.71
226.685
226.1
224.947
223.222
220.921
218.039
214.574
210.524
205.887
200.663
194.854
188.461
181.489
173.942
165.827
157.154
147.932
138.173
127.891
117.102
105.823
94.074
81.874
69.246
56.216
42.808
29.051
14.974
0.608
-14.014
-28.858
-43.888
-59.065
-74.353
-89.709
-105.093
-120.462
-135.772
-150.98
-166.038
-180.903
-195.528
-209.868
-223.876
-237.51
-250.724
-263.478
-275.729
-287.439
-298.57
-309.089
-318.96
-328.156
-336.647
-344.408
-351.419
-357.66
-363.115
-367.772
-371.622
-374.659
-376.88
-378.287
-378.884
-378.678
-377.681
-375.907
-373.374
-370.104
-366.121
-361.452
-356.128
-350.183
-343.652
-336.573
-328.987
-320.935
-312.461
-303.608
-294.423
-284.95
-275.237
-265.33
-255.274
-245.116
-234.901
-224.673
-214.475
-204.349
-194.335
-184.472
-174.797
-165.346
-156.15
-147.243
-138.651
-130.403
-122.522
-115.031
-107.948
-101.291
-95.072
-89.304
-83.995
-79.15
-74.773
-70.864
-67.422
-64.443
-61.92
-59.845
-58.208
-56.997
-56.199
-55.8
-55.782
-56.128
-56.822
-57.843
-59.173
-60.791
-62.677
-64.811
-67.172
-69.738
-72.488
-75.401
-78.456
-81.632
-84.907
-88.26
-91.672
-95.122
-98.592
-102.062
-105.516
-108.935
-112.305
-115.611
-118.837
-121.972
-125.002
-127.917
-130.707
-133.361
-135.871
-138.23
-140.431
-142.467
-144.333
-146.023
-147.533
-148.86
-150
-150.95
-151.709
-152.274
-152.646
-152.825
-152.812
-152.609
-152.219
-151.647
-150.897
-149.975
-148.888
-147.642
-146.247
-144.711
-143.043
-141.253
-139.353
-137.353
-135.265
-133.101
-130.875
-128.598
-126.285
-123.949
-121.604
-119.264
-116.945
-114.663
-112.432
-110.27
-108.192
-106.216
-104.359
-102.636
-101.066
-99.664
-98.445
-97.424
-96.617
-96.035
-95.693
-95.6
-95.769
-96.207
-96.923
-97.922
-99.21
-100.789
-102.661
-104.825
-107.28
-110.023
-113.049
-116.353
-119.927
-123.764
-127.853
-132.183
-136.74
-141.511
-146.477
-151.62
-156.921
-162.359
-167.912
-173.556
-179.267
-185.02
-190.789
-196.548
-202.269
-207.924
-213.485
-218.923
-224.21
-229.319
-234.225
-238.902
-243.328
-247.483
-251.348
-254.906
-258.142
-261.042
-263.59
-265.776
-267.588
-269.019
-270.062
-270.714
-270.973
-270.84
-270.319
-269.415
-268.136
-266.49
-264.487
-262.137
-259.452
-256.447
-253.141
-249.555
-245.71
-241.629
-237.334
-232.849
-228.196
-223.401
-218.487
-213.475
-208.386
-203.24
-198.054
-192.852
-187.651
-182.467
-177.31
-172.187
-167.111
-162.11
-157.219
-152.473
-147.9
-143.518
-139.336
-135.367
-131.612
-128.058
-124.682
-121.447
-118.327
-115.318
-112.438
-109.707
-107.108
-104.587
-102.034
-99.312
-96.341
-93.077
-89.508
-85.679
-81.622
-77.356
-73.026
-68.862
-64.928
-61.168
-57.262
-52.623
-47.056
-40.814
-34.209
-27.593
-21.374
-15.863
-11.91
-11.026
-13.766
-19.624
-27.63
-36.249
-44.264
-51.264
-56.131
-56.601
-51.443
-40.451
-23.904
-3.414
19.942
46.64
76.296
107.033
137.324
165.579
190.074
210.842
227.637
238.372
241.66
237.298
225.274
206.789
183.833
156.694
125.319
91.336
56.42
22.218
-9.264
-37.385
-62.485
-83.442
-98.303
-106.289
-107.21
-101.918
-92.565
-80.37
-65.665
-49.712
-34.367
-20.93
-10.391
-2.646
3.705
9.439
14.661
19.662
24.66
29.715
34.97
40.1
44.262
46.998
48.176
47.824
46.27
43.842
40.784
37.382
33.921
30.57
27.444
24.605
22.048
19.818
17.964
16.538
15.619
15.264
15.506
16.34
17.704
19.493
21.596
23.935
26.471
29.189
32.09
35.181
38.479
42.009
45.803
49.877
54.222
58.822
63.658
68.72
74.013
79.546
85.33
91.368
97.66
104.198
110.976
117.979
125.187
132.57
140.095
147.733
155.462
163.26
171.107
178.981
186.861
194.726
202.559
210.337
218.04
225.645
233.126
240.462
247.632
254.617
261.4
267.963
274.292
280.375
286.2
291.756
297.034
302.023
306.715
311.098
315.165
318.906
322.312
325.375
328.087
330.443
332.435
334.059
335.308
336.177
336.663
336.76
336.466
335.777
334.692
333.211
331.335
329.066
326.409
323.368
319.95
316.16
312.008
307.502
302.653
297.471
291.97
286.163
280.067
273.699
267.078
260.226
253.167
245.924
238.525
230.998
223.374
215.683
207.957
200.23
192.535
184.908
177.381
169.99
162.768
155.748
148.961
142.439
136.21
130.302
124.742
119.555
114.762
110.385
106.443
102.952
99.926
97.377
95.314
93.746
92.675
92.104
92.032
92.454
93.364
94.753
96.609
98.915
101.656
104.81
108.357
112.272
116.53
121.105
125.969
131.093
136.451
142.012
147.749
153.631
159.633
165.724
171.879
178.071
184.275
190.465
196.619
202.713
208.726
214.638
220.428
226.079
231.572
236.893
242.025
246.955
251.67
256.16
260.414
264.426
268.187
271.692
274.936
277.916
280.629
283.073
285.245
287.145
288.772
290.125
291.203
292.007
292.536
292.791
292.771
292.477
291.909
291.069
289.956
288.573
286.92
285.001
282.819
280.378
277.682
274.737
271.549
268.125
264.473
260.6
256.515
252.226
247.743
243.075
238.232
233.223
228.061
222.755
217.317
211.759
206.093
200.332
194.487
188.572
182.599
176.582
170.533
164.466
158.394
152.33
146.287
140.278
134.313
128.406
122.565
116.802
111.124
105.54
100.058
94.685
89.426
84.289
79.279
74.401
69.662
65.066
60.619
56.325
52.192
48.223
44.425
40.804
37.365
34.116
31.062
28.211
25.569
23.144
20.941
18.969
17.232
15.738
14.494
13.504
12.774
12.312
12.12
12.206
12.573
13.225
14.166
15.398
16.923
18.742
20.853
23.255
25.944
28.914
32.161
35.675
39.446
43.463
47.712
52.179
56.846
61.695
66.706
71.859
77.131
82.498
87.938
93.424
98.934
104.441
109.92
115.348
120.698
125.948
131.073
136.051
140.861
145.481
149.892
154.077
158.02
161.704
165.118
168.25
171.091
173.633
175.872
177.804
179.427
180.742
181.752
182.46
182.872
182.995
182.839
182.414
181.73
180.8
179.635
178.25
176.657
174.871
172.903
170.767
168.476
166.041
163.474
160.786
157.986
155.082
152.082
148.994
145.823
142.574
139.25
135.856
132.393
128.862
125.266
121.604
117.878
114.086
110.23
106.309
102.325
98.278
94.17
90.004
85.782
81.51
77.191
72.833
68.443
64.029
59.603
55.176
50.761
46.373
42.027
37.741
33.533
29.423
25.43
21.575
17.881
14.368
11.059
7.975
5.139
2.57
0.289
-1.685
-3.336
-4.648
-5.608
-6.206
-6.432
-6.281
-5.751
-4.841
-3.554
-1.897
0.122
2.49
5.192
8.209
11.521
15.103
18.927
22.964
27.182
31.547
36.023
40.571
45.153
49.727
54.252
58.686
62.986
67.11
71.014
74.658
78.001
81.004
83.63
85.844
87.614
88.912
89.71
89.986
89.721
88.899
87.508
85.54
82.99
79.859
76.149
71.868
67.026
61.638
55.721
49.298
42.391
35.027
27.237
19.053
10.509
1.642
-7.51
-16.906
-26.504
-36.262
-46.134
-56.077
-66.046
-75.995
-85.882
-95.662
-105.293
-114.735
-123.949
-132.896
-141.543
-149.856
-157.804
-165.36
-172.498
-179.195
-185.43
-191.188
-196.452
-201.211
-205.455
-209.176
-212.371
-215.037
-217.173
-218.782
-219.869
-220.44
-220.506
-220.077
-219.168
-217.794
-215.974
-213.728
-211.077
-208.044
-204.654
-200.932
-196.905
-192.599
-188.043
-183.265
-178.292
-173.152
-167.875
-162.487
-157.016
-151.49
-145.934
-140.375
-134.838
-129.347
-123.928
-118.604
-113.399
-108.333
-103.431
-98.711
-94.196
-89.902
-85.849
-82.053
-78.528
-75.288
-72.345
-69.71
-67.39
-65.394
-63.725
-62.39
-61.389
-60.724
-60.395
-60.401
-60.738
-61.404
-62.393
-63.702
-65.322
-67.249
-69.474
-71.989
-74.786
-77.854
-81.183
-84.762
-88.579
-92.622
-96.876
-101.328
-105.962
-110.764
-115.717
-120.807
-126.015
-131.328
-136.728
-142.201
-147.729
-153.299
-158.895
-164.503
-170.108
-175.698
-181.258
-186.776
-192.239
-197.634
-202.95
-208.173
-213.291
-218.293
-223.166
-227.899
-232.479
-236.895
-241.135
-245.19
-249.047
-252.698
-256.132
-259.342
-262.319
-265.056
-267.547
-269.784
-271.764
-273.48
-274.931
-276.112
-277.02
-277.653
-278.01
-278.09
-277.892
-277.417
-276.666
-275.641
-274.345
-272.781
-270.954
-268.87
-266.536
-263.961
-261.153
-258.124
-254.885
-251.45
-247.835
-244.053
-240.123
-236.062
-231.889
-227.623
-223.286
-218.897
-214.478
-210.051
-205.637
-201.261
-196.943
-192.707
-188.576
-184.572
-180.717
-177.034
-173.545
-170.271
-167.233
-164.451
-161.943
-159.728
-157.823
-156.244
-155.004
-154.116
-153.591
-153.438
-153.664
-154.274
-155.271
-156.654
-158.424
-160.575
-163.102
-165.998
-169.252
-172.853
-176.786
-181.037
-185.588
-190.42
-195.513
-200.844
-206.391
-212.129
-218.032
-224.075
-230.229
-236.468
-242.762
-249.084
-255.404
-261.692
-267.92
-274.059
-280.081
-285.956
-291.658
-297.16
-302.438
-307.465
-312.219
-316.678
-320.822
-324.63
-328.087
-331.174
-333.879
-336.186
-338.086
-339.567
-340.622
-341.243
-341.426
-341.166
-340.461
-339.311
-337.714
-335.674
-333.194
-330.276
-326.927
-323.154
-318.963
-314.364
-309.366
-303.981
-298.22
-292.096
-285.622
-278.815
-271.688
-264.258
-256.543
-248.56
-240.329
-231.868
-223.2
-214.345
-205.325
-196.163
-186.883
-177.51
-168.068
-158.582
-149.079
-139.584
-130.125
-120.729
-111.422
-102.231
-93.185
-84.311
-75.635
-67.186
-58.989
-51.07
-43.456
-36.171
-29.239
-22.683
-16.525
-10.785
-5.483
-0.634
3.745
7.641
11.044
13.944
16.336
18.216
19.584
20.441
20.792
20.645
20.01
18.901
17.333
15.324
12.897
10.073
6.879
3.343
-0.506
-4.635
-9.011
-13.598
-18.359
-23.257
-28.253
-33.306
-38.375
-43.421
-48.401
-53.275
-58.003
-62.545
-66.863
-70.92
-74.679
-78.108
-81.176
-83.854
-86.116
-87.94
-89.304
-90.194
-90.595
-90.499
-89.897
-88.788
-87.172
-85.052
-82.435
-79.333
-75.757
-71.726
-67.258
-62.376
-57.106
-51.475
-45.514
-39.256
-32.735
-25.988
-19.053
-11.97
-4.779
2.478
9.76
17.025
24.231
31.337
38.303
45.09
51.661
57.98
64.014
69.732
75.106
80.111
84.723
88.922
92.691
96.017
98.888
101.298
103.241
104.717
105.727
106.277
106.376
106.033
105.263
104.084
102.514
100.575
98.293
95.694
92.805
89.659
86.285
82.719
78.992
75.141
71.198
67.2
63.18
59.172
55.208
51.319
47.535
43.886
40.396
37.091
33.994
31.124
28.501
26.139
24.053
22.253
20.748
19.543
18.644
18.051
17.764
17.779
18.092
18.696
19.581
20.736
22.149
23.805
25.689
27.784
30.073
32.536
35.156
37.913
40.79
43.766
46.825
49.948
53.119
56.322
59.543
62.767
65.982
69.177
72.343
75.471
78.553
81.584
84.559
87.474
90.328
93.118
95.844
98.505
101.104
103.641
106.118
108.538
110.905
113.22
115.489
117.714
119.898
122.045
124.156
126.233
128.278
130.29
132.269
134.215
136.123
137.992
139.817
141.593
143.314
144.973
146.562
148.073
149.496
150.822
152.042
153.145
154.123
154.967
155.667
156.216
156.607
156.832
156.888
156.768
156.47
155.992
155.335
154.498
153.485
152.3
150.951
149.445
147.792
146.003
144.091
142.069
139.952
137.757
135.5
133.201
130.877
128.55
126.24
123.967
121.753
119.617
117.58
115.659
113.873
112.237
110.767
109.476
108.375
107.475
106.781
106.301
106.037
105.986
106.147
106.512
107.072
107.812
108.718
109.769
110.945
112.222
113.577
114.982
116.411
117.836
119.226
120.551
121.781
122.883
123.825
124.574
125.099
125.371
125.36
125.04
124.386
123.374
121.984
120.2
118.006
115.39
112.341
108.851
104.919
100.547
95.743
90.516
84.884
78.867
72.496
65.807
58.838
51.626
44.209
36.623
28.908
21.103
13.247
5.377
-2.466
-10.233
-17.873
-25.323
-32.52
-39.406
-45.923
-52.025
-57.668
-62.807
-67.398
-71.401
-74.772
-77.471
-79.452
-80.655
-81.038
-80.584
-79.286
-77.168
-74.285
-70.698
-66.498
-61.77
-56.557
-50.912
-44.885
-38.518
-31.881
-25.002
-17.853
-10.432
-2.746
5.183
13.269
21.529
30.141
39.197
48.657
58.29
67.733
76.886
86.049
95.511
105.255
115.278
125.805
137.627
151.79
168.6
187.307
206.579
225.427
243.087
258.571
270.291
276.347
275.764
269.106
258.06
244.012
227.905
210.66
193.404
177.682
164.523
153.707
144.136
134.936
125.726
116.462
107.229
97.709
87.624
77.194
66.946
57.341
48.546
40.406
32.655
25.219
18.118
11.346
4.854
-1.47
-7.688
-13.784
-19.738
-25.529
-31.163
-36.677
-42.083
-47.347
-52.408
-57.155
-61.488
-65.344
-68.686
-71.494
-73.774
-75.525
-76.762
-77.521
-77.827
-77.702
-77.161
-76.202
-74.828
-73.053
-70.899
-68.398
-65.584
-62.485
-59.124
-55.523
-51.698
-47.665
-43.434
-39.007
-34.389
-29.588
-24.614
-19.484
-14.214
-8.819
-3.315
2.279
7.949
13.681
19.46
25.276
31.119
36.977
42.84
48.695
54.532
60.34
66.106
71.817
77.461
83.023
88.491
93.849
99.085
104.184
109.131
113.912
118.513
122.919
127.117
131.092
134.831
138.322
141.553
144.516
147.201
149.602
151.712
153.528
155.044
156.26
157.172
157.778
158.078
158.072
157.761
157.147
156.232
155.023
153.523
151.741
149.683
147.359
144.779
141.954
138.896
135.617
132.131
128.452
124.594
120.571
116.398
112.09
107.661
103.125
98.497
93.788
89.011
84.178
79.301
74.389
69.453
64.501
59.543
54.586
49.637
44.705
39.794
34.911
30.061
25.247
20.474
15.744
11.06
6.422
1.833
-2.708
-7.201
-11.647
-16.047
-20.402
-24.716
-28.989
-33.224
-37.424
-41.59
-45.724
-49.829
-53.906
-57.957
-61.984
-65.987
-69.967
-73.927
-77.866
-81.785
-85.685
-89.566
-93.429
-97.274
-101.102
-104.913
-108.706
-112.482
-116.24
-119.98
-123.702
-127.404
-131.085
-134.744
-138.38
-141.99
-145.572
-149.124
-152.643
-156.126
-159.57
-162.972
-166.329
-169.635
-172.888
-176.083
-179.215
-182.279
-185.269
-188.18
-191.004
-193.736
-196.366
-198.887
-201.291
-203.568
-205.709
-207.703
-209.54
-211.209
-212.699
-213.997
-215.093
-215.973
-216.626
-217.04
-217.202
-217.101
-216.724
-216.061
-215.099
-213.828
-212.238
-210.318
-208.06
-205.454
-202.493
-199.17
-195.479
-191.415
-186.973
-182.152
-176.95
-171.367
-165.405
-159.066
-152.355
-145.277
-137.84
-130.053
-121.927
-113.472
-104.703
-95.634
-86.282
-76.665
-66.8
-56.71
-46.414
-35.936
-25.297
-14.523
-3.638
7.333
18.363
29.425
40.494
51.542
62.541
73.465
84.287
94.98
105.518
115.876
126.03
135.954
145.628
155.028
164.134
172.928
181.392
189.508
197.264
204.645
211.642
218.243
224.443
230.236
235.618
240.587
245.144
249.29
253.03
256.369
259.315
261.877
264.066
265.894
267.376
268.526
269.363
269.904
270.167
270.174
269.944
269.499
268.862
268.054
267.098
266.017
264.833
263.569
262.246
260.888
259.513
258.144
256.798
255.494
254.249
253.079
251.997
251.016
250.148
249.402
248.787
248.308
247.97
247.776
247.727
247.823
248.06
248.436
248.943
249.575
250.323
251.178
252.127
253.159
254.26
255.415
256.61
257.828
259.052
260.265
261.449
262.588
263.661
264.652
265.544
266.318
266.958
267.447
267.771
267.915
267.865
267.608
267.133
266.429
265.488
264.302
262.865
261.172
259.219
257.004
254.528
251.79
248.793
245.541
242.037
238.287
234.299
230.081
225.64
220.988
216.135
211.094
205.877
200.498
194.971
189.311
183.533
177.653
171.686
165.65
159.559
153.43
147.28
141.123
134.976
128.855
122.773
116.745
110.785
104.906
99.12
93.439
87.874
82.436
77.134
71.979
66.978
62.14
57.474
52.985
48.68
44.565
40.645
36.923
33.404
30.088
26.979
24.076
21.381
18.893
16.61
14.53
12.651
10.97
9.483
8.185
7.072
6.137
5.376
4.783
4.351
4.075
3.947
3.96
4.108
4.383
4.777
5.281
5.887
6.586
7.368
8.224
9.143
10.116
11.132
12.183
13.257
14.347
15.441
16.532
17.611
18.668
19.698
20.692
21.645
22.55
23.403
24.198
24.934
25.606
26.212
26.751
27.221
27.621
27.951
28.212
28.406
28.535
28.603
28.614
28.573
28.488
28.364
28.212
28.04
27.858
27.676
27.507
27.361
27.251
27.19
27.189
27.263
27.423
27.681
28.05
28.54
29.162
29.925
30.839
31.91
33.146
34.552
36.133
37.893
39.834
41.957
44.263
46.749
49.411
52.245
55.244
58.399
61.7
65.134
68.688
72.347
76.093
79.908
83.772
87.663
91.559
95.437
99.271
103.037
106.71
110.264
113.674
116.914
119.962
122.793
125.384
127.716
129.766
131.518
132.955
134.061
134.823
135.23
135.275
134.95
134.252
133.18
131.736
129.924
127.751
125.226
122.363
119.174
115.68
111.898
107.852
103.566
99.066
94.383
89.546
84.587
79.539
74.437
69.315
64.209
59.154
54.186
49.339
44.648
40.146
35.865
31.836
28.088
24.646
21.536
18.779
16.395
14.401
12.809
11.632
10.876
10.546
10.644
11.169
12.116
13.477
15.243
17.4
19.932
22.82
26.044
29.58
33.402
37.482
41.791
46.295
50.963
55.759
60.648
65.592
70.554
75.497
80.382
85.171
89.829
94.318
98.604
102.652
106.431
109.91
113.061
115.858
118.277
120.297
121.899
123.066
123.786
124.046
123.839
123.158
122.001
120.368
118.26
115.682
112.643
109.152
105.223
100.872
96.119
90.984
85.493
79.672
73.552
67.165
60.544
53.726
46.749
39.651
32.474
25.256
18.041
10.87
3.783
-3.178
-9.974
-16.565
-22.914
-28.985
-34.743
-40.157
-45.196
-49.831
-54.038
-57.792
-61.075
-63.869
-66.16
-67.938
-69.196
-69.932
-70.147
-69.848
-69.045
-67.753
-65.993
-63.79
-61.172
-58.175
-54.835
-51.195
-47.303
-43.208
-38.963
-34.625
-30.252
-25.905
-21.645
-17.536
-13.641
-10.025
-6.751
-3.883
-1.481
0.392
1.678
2.321
2.265
1.46
-0.143
-2.588
-5.915
-10.158
-15.349
-21.511
-28.663
-36.819
-45.984
-56.159
-67.337
-79.503
-92.638
-106.714
-121.698
-137.55
-154.223
-171.665
-189.82
-208.624
-228.012
-247.912
-268.25
-288.95
-309.931
-331.111
-352.408
-373.736
-395.011
-416.148
-437.061
-457.666
-477.88
-497.623
-516.816
-535.383
-553.252
-570.355
-586.628
-602.01
-616.449
-629.894
-642.303
-653.639
-663.871
-672.973
-680.929
-687.726
-693.358
-697.825
-701.136
-703.3
-704.338
-704.27
-703.125
-700.935
-697.737
-693.572
-688.482
-682.517
-675.726
-668.162
-659.881
-650.941
-641.399
-631.316
-620.753
-609.772
-598.432
-586.796
-574.924
-562.874
-550.705
-538.472
-526.231
-514.032
-501.925
-489.958
-478.174
-466.614
-455.317
-444.318
-433.65
-423.342
-413.421
-403.91
-394.831
-386.202
-378.04
-370.357
-363.164
-356.471
-350.283
-344.604
-339.437
-334.78
-330.634
-326.992
-323.851
-321.202
-319.039
-317.351
-316.127
-315.357
-315.026
-315.123
-315.634
-316.542
-317.835
-319.495
-321.507
-323.854
-326.52
-329.487
-332.737
-336.253
-340.015
-344.004
-348.2
-352.584
-357.134
-361.829
-366.648
-371.569
-376.568
-381.624
-386.714
-391.814
-396.901
-401.952
-406.944
-411.852
-416.653
-421.323
-425.839
-430.176
-434.31
-438.219
-441.878
-445.264
-448.356
-451.13
-453.566
-455.643
-457.341
-458.641
-459.526
-459.978
-459.984
-459.528
-458.6
-457.188
-455.284
-452.881
-449.973
-446.557
-442.63
-438.193
-433.246
-427.794
-421.841
-415.394
-408.461
-401.052
-393.18
-384.859
-376.104
-366.933
-357.364
-347.419
-337.12
-326.49
-315.553
-304.337
-292.867
-281.173
-269.282
-257.223
-245.027
-232.725
-220.345
-207.919
-195.476
-183.047
-170.662
-158.348
-146.136
-134.054
-122.128
-110.387
-98.855
-87.559
-76.522
-65.769
-55.32
-45.197
-35.42
-26.006
-16.972
-8.332
-0.1
7.713
15.096
22.042
28.544
34.596
40.196
45.341
50.031
54.268
58.052
61.389
64.282
66.738
68.764
70.368
71.559
72.348
72.745
72.764
72.416
71.716
70.678
69.319
67.656
65.705
63.484
61.014
58.312
55.399
52.296
49.023
45.601
42.05
38.392
34.647
30.836
26.981
23.101
19.22
15.357
11.534
7.772
4.093
0.518
-2.934
-6.241
-9.384
-12.343
-15.097
-17.63
-19.921
-21.954
-23.712
-25.178
-26.338
-27.179
-27.691
-27.864
-27.692
-27.17
-26.295
-25.068
-23.489
-21.562
-19.291
-16.682
-13.743
-10.485
-6.92
-3.062
1.072
5.462
10.086
14.919
19.936
25.109
30.408
35.803
41.262
46.749
52.231
57.67
63.028
68.267
73.345
78.224
82.864
87.229
91.283
94.994
98.331
101.268
103.783
105.859
107.477
108.621
109.277
109.435
109.084
108.217
106.824
104.9
102.448
99.477
96.002
92.047
87.639
82.808
77.593
72.033
66.167
60.038
53.682
47.131
40.43
33.629
26.789
19.985
13.276
6.707
0.328
-5.83
-11.754
-17.442
-22.929
-28.261
-33.448
-38.484
-43.339
-47.943
-52.241
-56.175
-59.675
-62.716
-65.267
-67.28
-68.744
-69.63
-69.861
-69.345
-67.924
-65.411
-61.712
-56.789
-50.651
-43.415
-35.208
-26.199
-16.632
-6.694
3.453
13.639
23.759
33.699
43.276
52.287
60.468
67.491
73.146
77.292
79.829
80.797
80.281
78.434
75.532
71.805
67.426
62.559
57.296
51.72
45.983
40.237
34.669
29.534
25.016
21.257
18.39
16.445
15.4
15.184
15.623
16.562
17.918
19.624
21.664
24.046
26.747
29.751
33.054
36.603
40.359
44.298
48.374
52.589
56.972
61.573
66.483
71.788
77.533
83.747
90.438
97.589
105.188
113.205
121.593
130.315
139.34
148.637
158.187
167.957
177.907
187.989
198.15
208.335
218.494
228.583
238.558
248.382
258.022
267.453
276.656
285.612
294.302
302.706
310.803
318.576
326.009
333.089
339.806
346.15
352.119
357.713
362.936
367.797
372.304
376.468
380.305
383.829
387.059
390.014
392.714
395.179
397.432
399.494
401.389
403.139
404.767
406.294
407.743
409.133
410.482
411.809
413.129
414.454
415.799
417.172
418.583
420.039
421.546
423.107
424.724
426.397
428.122
429.895
431.708
433.552
435.417
437.288
439.153
440.996
442.799
444.547
446.221
447.804
449.277
450.623
451.824
452.863
453.725
454.394
454.857
455.102
455.118
454.898
454.434
453.723
452.761
451.549
450.089
448.386
446.446
444.279
441.896
439.31
436.538
433.596
430.506
427.288
423.965
420.562
417.105
413.62
410.136
406.679
403.279
399.962
396.756
393.687
390.78
388.059
385.547
383.262
381.223
379.445
377.942
376.722
375.793
375.158
374.819
374.773
375.013
375.531
376.313
377.345
378.607
380.077
381.73
383.539
385.474
387.502
389.588
391.696
393.787
395.821
397.758
399.556
401.175
402.572
403.708
404.542
405.038
405.159
404.87
404.14
402.942
401.248
399.037
396.291
392.993
389.135
384.708
379.71
374.143
368.012
361.327
354.101
346.354
338.106
329.383
320.214
310.633
300.674
290.377
279.783
268.938
257.888
246.68
235.365
223.993
212.616
201.285
190.051
178.966
168.078
157.436
147.087
137.075
127.441
118.225
109.464
101.19
93.434
86.222
79.576
73.517
68.06
63.218
59
55.41
52.451
50.122
48.417
47.328
46.846
46.955
47.638
48.878
50.652
52.936
55.704
58.929
62.582
66.634
71.052
75.806
80.864
86.194
91.763
97.54
103.496
109.599
115.82
122.132
128.508
134.922
141.35
147.769
154.156
160.492
166.758
172.934
179.005
184.955
190.768
196.432
201.934
207.262
212.406
217.356
222.103
226.639
230.956
235.048
238.91
242.534
245.918
249.055
251.943
254.578
256.957
259.076
260.933
262.525
263.849
264.904
265.687
266.196
266.429
266.385
266.063
265.463
264.583
263.424
261.988
260.276
258.29
256.033
253.51
250.725
247.684
244.394
240.861
237.094
233.102
228.895
224.482
219.874
215.083
210.12
204.997
199.726
194.32
188.791
183.151
177.414
171.591
165.694
159.736
153.729
147.683
141.608
135.516
129.416
123.316
117.224
111.147
105.09
99.06
93.059
87.09
81.154
75.252
69.383
63.545
57.734
51.946
46.176
40.419
34.666
28.912
23.146
17.362
11.551
5.703
-0.191
-6.138
-12.147
-18.227
-24.384
-30.626
-36.959
-43.387
-49.917
-56.55
-63.29
-70.136
-77.089
-84.146
-91.304
-98.558
-105.9
-113.323
-120.817
-128.37
-135.969
-143.601
-151.249
-158.896
-166.524
-174.113
-181.641
-189.088
-196.429
-203.64
-210.698
-217.577
-224.255
-230.705
-236.903
-242.826
-248.449
-253.75
-258.706
-263.297
-267.501
-271.3
-274.678
-277.621
-280.115
-282.152
-283.725
-284.828
-285.461
-285.625
-285.322
-284.557
-283.336
-281.669
-279.566
-277.042
-274.11
-270.788
-267.097
-263.059
-258.698
-254.042
-249.116
-243.951
-238.574
-233.017
-227.311
-221.489
-215.581
-209.619
-203.637
-197.666
-191.742
-185.895
-180.154
-174.545
-169.095
-163.824
-158.753
-153.892
-149.248
-144.825
-140.63
-136.67
-132.953
-129.484
-126.265
-123.303
-120.603
-118.17
-115.996
-114.068
-112.361
-110.847
-109.501
-108.295
-107.204
-106.204
-105.267
-104.36
-103.458
-102.527
-101.53
-100.424
-99.149
-97.655
-95.922
-93.936
-91.698
-89.242
-86.602
-83.839
-81.037
-78.237
-75.468
-72.763
-70.151
-67.671
-65.341
-63.114
-60.925
-58.728
-56.488
-54.231
-51.927
-49.374
-46.45
-43.177
-39.72
-36.376
-33.213
-29.889
-26.038
-21.64
-16.632
-10.721
-3.17
7.029
20.153
35.382
51.378
67.154
81.909
94.625
103.652
107
103.665
94.211
80.264
63.18
43.84
23.104
2.206
-17.198
-34.028
-48.446
-61.573
-74.308
-86.997
-99.654
-112.185
-124.887
-138.046
-151.438
-164.451
-176.571
-187.567
-197.539
-206.826
-215.571
-223.773
-231.483
-238.757
-245.704
-252.424
-258.933
-265.192
-271.177
-276.884
-282.338
-287.589
-292.634
-297.431
-301.896
-305.899
-309.351
-312.21
-314.448
-316.067
-317.072
-317.467
-317.285
-316.578
-315.396
-313.776
-311.746
-309.321
-306.528
-303.414
-300.034
-296.453
-292.731
-288.918
-285.068
-281.23
-277.448
-273.767
-270.219
-266.827
-263.62
-260.628
-257.884
-255.421
-253.269
-251.454
-250.001
-248.934
-248.272
-248.028
-248.212
-248.826
-249.871
-251.344
-253.239
-255.546
-258.251
-261.336
-264.783
-268.569
-272.667
-277.048
-281.68
-286.528
-291.555
-296.721
-301.986
-307.306
-312.638
-317.937
-323.16
-328.263
-333.202
-337.934
-342.414
-346.603
-350.458
-353.941
-357.014
-359.644
-361.796
-363.444
-364.563
-365.132
-365.133
-364.554
-363.385
-361.62
-359.258
-356.302
-352.759
-348.637
-343.952
-338.723
-332.973
-326.727
-320.018
-312.879
-305.347
-297.464
-289.273
-280.82
-272.154
-263.324
-254.382
-245.381
-236.375
-227.417
-218.562
-209.862
-201.371
-193.139
-185.217
-177.652
-170.488
-163.768
-157.53
-151.812
-146.646
-142.06
-138.082
-134.731
-132.027
-129.983
-128.609
-127.909
-127.884
-128.531
-129.841
-131.801
-134.395
-137.601
-141.393
-145.743
-150.617
-155.981
-161.794
-168.015
-174.601
-181.504
-188.677
-196.072
-203.64
-211.331
-219.095
-226.885
-234.652
-242.35
-249.934
-257.361
-264.59
-271.582
-278.3
-284.711
-290.782
-296.484
-301.794
-306.687
-311.145
-315.152
-318.695
-321.765
-324.357
-326.468
-328.1
-329.255
-329.942
-330.169
-329.95
-329.299
-328.232
-326.769
-324.928
-322.732
-320.201
-317.357
-314.222
-310.817
-307.164
-303.281
-299.187
-294.9
-290.436
-285.809
-281.033
-276.12
-271.079
-265.92
-260.649
-255.273
-249.794
-244.217
-238.542
-232.769
-226.898
-220.925
-214.848
-208.664
-202.367
-195.954
-189.419
-182.758
-175.966
-169.04
-161.977
-154.775
-147.435
-139.959
-132.349
-124.613
-116.759
-108.798
-100.744
-92.613
-84.426
-76.202
-67.967
-59.745
-51.566
-43.459
-35.456
-27.589
-19.894
-12.404
-5.155
1.818
8.478
14.791
20.723
26.239
31.309
35.901
39.988
43.542
46.541
48.963
50.791
52.011
52.612
52.588
51.937
50.66
48.765
46.262
43.169
39.504
35.294
30.566
25.355
19.697
13.633
7.206
0.464
-6.545
-13.769
-21.154
-28.646
-36.189
-43.727
-51.204
-58.563
-65.749
-72.708
-79.386
-85.733
-91.699
-97.239
-102.307
-106.865
-110.875
-114.304
-117.124
-119.31
-120.842
-121.704
-121.887
-121.385
-120.197
-118.327
-115.785
-112.584
-108.743
-104.284
-99.233
-93.621
-87.482
-80.853
-73.775
-66.29
-58.445
-50.285
-41.86
-33.22
-24.416
-15.5
-6.524
2.462
11.404
20.254
28.963
37.481
45.765
53.769
61.453
68.778
75.709
82.212
88.26
93.827
98.89
103.433
107.44
110.901
113.81
116.165
117.966
119.218
119.931
120.116
119.789
118.97
117.679
115.944
113.791
111.252
108.359
105.146
101.652
97.914
93.971
89.864
85.634
81.323
76.972
72.624
68.318
64.095
59.994
56.054
52.311
48.8
45.552
42.6
39.971
37.692
35.784
34.27
33.167
32.489
32.249
32.455
33.112
34.223
35.787
37.802
40.261
43.154
46.471
50.196
54.313
58.806
63.653
68.834
74.326
80.106
86.15
92.434
98.934
105.624
112.481
119.48
126.599
133.813
141.103
148.447
155.826
163.224
170.623
178.012
185.377
192.71
200.002
207.248
214.445
221.592
228.691
235.745
242.76
249.743
256.706
263.657
270.61
277.576
284.568
291.598
298.678
305.818
313.028
320.316
327.688
335.151
342.71
350.367
358.124
365.98
373.931
381.973
390.099
398.3
406.56
414.866
423.198
431.535
439.855
448.132
456.337
464.438
472.401
480.191
487.771
495.099
502.133
508.83
515.148
521.045
526.481
531.419
535.823
539.663
542.914
545.553
547.56
548.918
549.611
549.628
548.959
547.597
545.535
542.769
539.304
535.151
530.332
524.873
518.804
512.162
504.99
497.336
489.258
480.808
472.029
462.975
453.705
444.29
434.819
425.368
415.996
406.757
397.696
388.85
380.256
371.914
363.786
355.842
348.047
340.409
332.984
325.815
318.938
312.391
306.194
300.412
295.164
290.539
286.604
283.439
281.109
279.754
279.597
280.815
283.539
287.82
293.588
300.773
309.3
319.023
329.765
341.26
353.136
365.094
376.904
388.318
399.108
408.951
417.41
424.133
428.85
431.378
431.66
429.654
425.326
418.769
410.162
399.785
388.033
375.204
361.497
347.132
332.309
317.296
302.461
288.083
274.358
261.451
249.456
238.462
228.568
219.759
211.929
204.916
198.493
192.507
186.897
181.595
176.546
171.681
166.888
162.113
157.357
152.613
147.878
143.147
138.398
133.664
129.029
124.586
120.448
116.685
113.326
110.394
107.902
105.855
104.252
103.069
102.256
101.776
101.6
101.704
102.068
102.66
103.429
104.328
105.309
106.331
107.358
108.356
109.292
110.138
110.875
111.489
111.97
112.308
112.487
112.493
112.313
111.937
111.356
110.564
109.555
108.326
106.882
105.228
103.373
101.329
99.109
96.725
94.195
91.535
88.763
85.897
82.956
79.959
76.926
73.879
70.837
67.819
64.847
61.939
59.113
56.387
53.777
51.297
48.963
46.786
44.78
42.955
41.32
39.883
38.651
37.628
36.816
36.215
35.824
35.636
35.644
35.84
36.213
36.75
37.435
38.252
39.183
40.209
41.309
42.461
43.641
44.825
45.988
47.104
48.145
49.085
49.897
50.554
51.028
51.291
51.318
51.082
50.557
49.719
48.545
47.013
45.102
42.795
40.074
36.926
33.339
29.302
24.809
19.855
14.438
8.559
2.22
-4.571
-11.806
-19.474
-27.558
-36.043
-44.906
-54.126
-63.675
-73.528
-83.651
-94.014
-104.58
-115.314
-126.176
-137.127
-148.125
-159.128
-170.093
-180.977
-191.736
-202.327
-212.708
-222.837
-232.674
-242.178
-251.312
-260.04
-268.327
-276.141
-283.453
-290.236
-296.465
-302.12
-307.182
-311.636
-315.473
-318.683
-321.263
-323.213
-324.535
-325.236
-325.327
-324.821
-323.736
-322.092
-319.914
-317.227
-314.062
-310.449
-306.425
-302.023
-297.281
-292.239
-286.935
-281.411
-275.705
-269.86
-263.915
-257.911
-251.887
-245.88
-239.928
-234.066
-228.327
-222.743
-217.342
-212.151
-207.194
-202.493
-198.064
-193.925
-190.086
-186.557
-183.344
-180.447
-177.868
-175.601
-173.64
-171.974
-170.59
-169.473
-168.605
-167.966
-167.534
-167.286
-167.196
-167.239
-167.388
-167.616
-167.895
-168.199
-168.5
-168.771
-168.988
-169.126
-169.162
-169.074
-168.842
-168.449
-167.877
-167.114
-166.147
-164.968
-163.569
-161.946
-160.097
-158.024
-155.73
-153.221
-150.505
-147.595
-144.502
-141.244
-137.837
-134.3
-130.656
-126.925
-123.132
-119.301
-115.457
-111.625
-107.83
-104.098
-100.454
-96.92
-93.519
-90.274
-87.204
-84.329
-81.665
-79.226
-77.028
-75.08
-73.393
-71.973
-70.824
-69.95
-69.351
-69.024
-68.967
-69.171
-69.63
-70.333
-71.267
-72.418
-73.77
-75.305
-77.004
-78.848
-80.815
-82.882
-85.026
-87.226
-89.458
-91.698
-93.924
-96.115
-98.25
-100.308
-102.27
-104.12
-105.84
-107.417
-108.837
-110.09
-111.165
-112.055
-112.753
-113.257
-113.562
-113.668
-113.575
-113.286
-112.805
-112.138
-111.29
-110.272
-109.092
-107.762
-106.295
-104.705
-103.006
-101.215
-99.348
-97.423
-95.457
-93.469
-91.477
-89.499
-87.554
-85.661
-83.838
-82.102
-80.471
-78.96
-77.588
-76.368
-75.316
-74.446
-73.772
-73.306
-73.062
-73.051
-73.284
-73.771
-74.524
-75.549
-76.857
-78.454
-80.346
-82.539
-85.038
-87.845
-90.963
-94.392
-98.133
-102.184
-106.542
-111.204
-116.164
-121.416
-126.952
-132.763
-138.837
-145.164
-151.729
-158.519
-165.516
-172.705
-180.065
-187.579
-195.224
-202.98
-210.821
-218.725
-226.664
-234.613
-242.545
-250.43
-258.24
-265.945
-273.516
-280.923
-288.138
-295.13
-301.871
-308.333
-314.489
-320.311
-325.776
-330.857
-335.534
-339.785
-343.591
-346.937
-349.809
-352.197
-354.092
-355.489
-356.388
-356.787
-356.689
-356.099
-355.024
-353.475
-351.462
-349.002
-346.11
-342.807
-339.112
-335.05
-330.647
-325.931
-320.93
-315.672
-310.188
-304.511
-298.67
-292.697
-286.622
-280.476
-274.288
-268.089
-261.907
-255.77
-249.704
-243.732
-237.872
-232.144
-226.555
-221.114
-215.826
-210.689
-205.701
-200.861
-196.169
-191.627
-187.241
-183.012
-178.938
-175.014
-171.228
-167.559
-163.98
-160.456
-156.95
-153.422
-149.835
-146.162
-142.384
-138.474
-134.402
-130.123
-125.566
-120.674
-115.405
-109.727
-103.624
-97.096
-90.165
-82.89
-75.372
-67.717
-60.013
-52.31
-44.639
-37.032
-29.546
-22.283
-15.354
-8.804
-2.601
3.329
9.091
14.773
20.506
26.576
33.217
40.526
48.402
56.494
64.46
72.179
79.688
87.077
94.889
103.958
115.238
130.006
149.194
173.068
201.297
232.899
265.789
297.157
324.204
343.952
354.05
353.179
340.872
317.612
285.273
246.826
205.174
163.228
123.396
87.1
55.184
27.992
4.978
-15.124
-33.334
-50.489
