Name
Date of Birth,"20 Jul 2000"
Recorded Date,2025-03-27 19:33:50 +0200
Classification,Sinus Rhythm
Symptoms,
Software Version,1.90
Device,"Watch7,10"
Sample Rate,512 hertz


Lead,Lead I
Unit,µV

-45.507
-35.029
-25.701
-17.924
-12.011
-8.309
-7.219
-8.954
-13.532
-20.65
-29.62
-39.769
-50.605
-61.513
-71.772
-80.975
-88.907
-95.943
-103.54
-112.945
-124.677
-139.481
-156.764
-175.17
-194.647
-212.993
-228.776
-240.894
-242.805
-229.534
-194.799
-132.419
-47.084
55.453
168.1
281.084
392.433
499.676
596.791
679.757
742.885
781.181
793.525
779.747
739.544
675.387
593.318
497.793
392.627
280.685
160.476
37.334
-76.021
-168.737
-229.459
-257.252
-264.147
-258.788
-248.893
-237.07
-216.106
-187.175
-155.92
-128.261
-117.74
-126.915
-149.885
-181.971
-209.163
-224.867
-230.747
-225.411
-215.924
-207.063
-198.702
-194.493
-192.954
-192.212
-192.766
-192.812
-193.878
-198.072
-203.939
-211.084
-216.263
-215.603
-212.343
-208.683
-208.019
-215.018
-225.315
-235.261
-242.407
-242.727
-239.128
-234.544
-229.648
-226.259
-223.392
-219.765
-215.68
-211.03
-205.969
-200.839
-195.541
-189.981
-184.234
-178.336
-172.287
-166.098
-159.775
-153.302
-146.668
-139.882
-132.923
-125.75
-118.346
-110.683
-102.726
-94.471
-85.92
-77.046
-67.828
-58.306
-48.507
-38.463
-28.22
-17.763
-7.05
3.87
14.921
26.242
37.995
50.048
62.384
75.007
87.485
100.851
116.103
131.706
147.161
159.683
165.946
169.532
172.813
179.349
194.041
212.461
230.844
246.584
255.42
260.316
264.283
267.975
273.242
278.993
283.836
288.044
291.438
294.098
296.28
297.75
298.313
297.991
296.791
294.714
291.789
288.022
283.411
277.977
271.718
264.605
256.6
247.647
237.721
226.856
215.121
202.65
189.606
176.113
162.278
148.183
133.899
119.53
105.181
90.944
76.939
63.287
50.125
37.648
26.008
15.274
5.469
-3.469
-11.652
-19.145
-25.994
-32.247
-37.926
-43.072
-47.727
-51.904
-55.632
-58.962
-61.97
-64.781
-67.508
-70.191
-72.84
-75.41
-77.814
-80.005
-81.948
-83.6
-84.945
-85.973
-86.68
-87.095
-87.252
-87.163
-86.825
-86.21
-85.289
-84.07
-82.574
-80.841
-78.934
-76.896
-74.769
-72.604
-70.435
-68.29
-66.188
-64.13
-62.107
-60.124
-58.186
-56.307
-54.503
-52.779
-51.14
-49.586
-48.115
-46.725
-45.411
-44.165
-42.98
-41.853
-40.781
-39.765
-38.81
-37.916
-37.084
-36.313
-35.601
-34.948
-34.351
-33.806
-33.309
-32.857
-32.447
-32.078
-31.748
-31.455
-31.199
-30.978
-30.791
-30.636
-30.513
-30.42
-30.355
-30.317
-30.304
-30.314
-30.344
-30.393
-30.458
-30.537
-30.628
-30.729
-30.836
-30.949
-31.064
-31.18
-31.295
-31.405
-31.511
-31.609
-31.697
-31.775
-31.84
-31.892
-31.929
-31.95
-31.954
-31.942
-31.912
-31.865
-31.801
-31.723
-31.631
-31.527
-31.414
-31.294
-31.171
-31.047
-30.926
-30.813
-30.711
-30.627
-30.565
-30.531
-30.531
-30.57
-30.654
-30.787
-30.975
-31.221
-31.531
-31.909
-32.358
-32.884
-33.491
-34.183
-34.962
-35.833
-36.797
-37.854
-39.005
-40.249
-41.582
-43
-44.498
-46.07
-47.709
-49.411
-51.168
-52.975
-54.824
-56.712
-58.631
-60.572
-62.525
-64.477
-66.411
-68.313
-70.165
-71.95
-73.653
-75.261
-76.761
-78.145
-79.406
-80.535
-81.521
-82.347
-82.993
-83.442
-83.688
-83.73
-83.576
-83.247
-82.773
-82.187
-81.53
-80.831
-80.107
-79.362
-78.583
-77.751
-76.846
-75.867
-74.832
-73.757
-72.65
-71.506
-70.315
-69.039
-67.632
-66.031
-64.161
-61.972
-59.445
-56.607
-53.533
-50.32
-47.084
-43.907
-40.846
-37.958
-35.298
-32.941
-30.958
-29.429
-28.45
-28.13
-28.602
-29.959
-32.235
-35.379
-39.281
-43.785
-48.71
-53.916
-59.269
-64.633
-69.877
-74.849
-79.433
-83.535
-87.058
-89.896
-91.94
-93.114
-93.416
-92.948
-91.842
-90.26
-88.4
-86.423
-84.534
-82.943
-81.878
-81.629
-82.331
-83.972
-86.428
-89.304
-92.129
-94.507
-95.868
-95.514
-93.116
-88.528
-82.119
-75.364
-69.75
-66.4
-65.488
-65.756
-66.072
-66.394
-69.247
-77.56
-90.369
-101.355
-97.147
-63.692
5.054
105.231
223.029
342.587
454.124
554.427
644.479
723.964
789.27
835.001
856.123
850.916
819.723
764.05
687.789
595.681
492.887
385.516
278.869
177.5
86.559
10.326
-49.297
-91.964
-118.809
-132.336
-134.959
-129.422
-119.774
-109.92
-102.341
-98.379
-98.14
-100.837
-105.77
-112.034
-117.968
-121.865
-122.711
-120.187
-114.709
-107.132
-98.237
-88.704
-79.339
-70.941
-63.994
-58.702
-55.013
-52.674
-51.445
-51.138
-51.535
-52.406
-53.583
-54.894
-56.156
-57.206
-57.851
-57.933
-57.363
-56.081
-54.056
-51.291
-47.811
-43.673
-38.961
-33.755
-28.116
-22.103
-15.764
-9.165
-2.386
4.49
11.38
18.226
24.993
31.657
38.207
44.648
50.991
57.268
63.516
69.766
76.041
82.36
88.739
95.197
101.759
108.443
115.27
122.255
129.41
136.742
144.259
151.96
159.841
167.895
176.109
184.472
192.97
201.589
210.313
219.123
227.998
236.915
245.847
254.765
263.639
272.435
281.116
289.646
297.987
306.101
313.947
321.487
328.681
335.489
341.873
347.795
353.217
358.106
362.428
366.153
369.251
371.698
373.47
374.548
374.915
374.56
373.473
371.648
369.084
365.783
361.752
357
351.541
345.393
338.577
331.118
323.044
314.385
305.178
295.456
285.26
274.631
263.61
252.243
240.574
228.65
216.517
204.223
191.814
179.338
166.839
154.363
141.952
129.65
117.496
105.529
93.785
82.298
71.099
60.217
49.678
39.505
29.717
20.332
11.363
2.821
-5.287
-12.957
-20.184
-26.972
-33.322
-39.24
-44.734
-49.814
-54.491
-58.78
-62.694
-66.252
-69.471
-72.37
-74.969
-77.287
-79.346
-81.166
-82.768
-84.173
-85.402
-86.475
-87.413
-88.233
-88.955
-89.597
-90.174
-90.702
-91.194
-91.663
-92.12
-92.573
-93.031
-93.5
-93.986
-94.493
-95.023
-95.58
-96.163
-96.772
-97.406
-98.063
-98.739
-99.432
-100.137
-100.85
-101.565
-102.278
-102.984
-103.677
-104.353
-105.005
-105.629
-106.22
-106.771
-107.279
-107.738
-108.145
-108.495
-108.786
-109.015
-109.182
-109.285
-109.325
-109.303
-109.219
-109.076
-108.875
-108.621
-108.317
-107.966
-107.573
-107.143
-106.68
-106.191
-105.68
-105.154
-104.617
-104.076
-103.534
-102.997
-102.47
-101.958
-101.464
-100.994
-100.552
-100.142
-99.769
-99.437
-99.148
-98.907
-98.716
-98.577
-98.491
-98.459
-98.482
-98.56
-98.693
-98.879
-99.119
-99.41
-99.751
-100.14
-100.574
-101.052
-101.569
-102.125
-102.714
-103.335
-103.985
-104.662
-105.362
-106.084
-106.825
-107.583
-108.355
-109.138
-109.93
-110.726
-111.525
-112.321
-113.113
-113.897
-114.669
-115.427
-116.167
-116.887
-117.582
-118.252
-118.891
-119.498
-120.068
-120.6
-121.088
-121.532
-121.926
-122.268
-122.554
-122.78
-122.942
-123.035
-123.054
-122.993
-122.846
-122.607
-122.271
-121.833
-121.286
-120.623
-119.839
-118.935
-117.909
-116.759
-115.483
-114.073
-112.528
-110.858
-109.058
-107.107
-104.993
-102.696
-100.219
-97.594
-94.831
-91.901
-88.83
-85.693
-82.551
-79.471
-76.471
-73.472
-70.459
-67.54
-64.64
-61.435
-57.861
-54.043
-49.955
-45.976
-41.482
-34.356
-25.006
-15.436
-8.833
-11.279
-22.612
-36.719
-47.572
-46.596
-33.003
-14.989
1.085
8.441
5.682
-1.097
-8.091
-12.788
-14.352
-15.271
-16.72
-18.593
-20.973
-23.475
-25.966
-28.741
-31.839
-35.126
-38.541
-42.044
-45.578
-49.081
-52.469
-55.617
-58.433
-60.892
-62.97
-64.656
-65.943
-66.821
-67.317
-67.515
-67.559
-67.616
-67.831
-68.31
-69.123
-70.327
-71.998
-74.243
-77.147
-80.754
-85.067
-90.007
-95.544
-101.704
-108.334
-115.087
-121.383
-126.444
-129.599
-130.378
-128.25
-122.742
-113.726
-101.328
-86.286
-69.717
-52.477
-35.639
-20.105
-5.971
6.928
20.433
37.265
58.486
86.149
120.401
160.644
210.236
269.096
338.651
421.443
513.573
613.331
714.423
803.084
866.813
892.425
873.425
816.413
735.67
646.086
556.241
464.212
361.743
245.931
125.172
17.764
-57.172
-90.968
-89.113
-68.613
-46.649
-32.968
-29.536
-31.486
-34.349
-37.115
-40.756
-47.36
-56.982
-68.044
-78.528
-86.184
-90.502
-90.663
-84.772
-74.268
-61.954
-52.301
-52.78
-63.122
-77.214
-88.472
-87.373
-73.983
-56.904
-42.7
-38.709
-45.373
-55.954
-66.517
-74.072
-77.93
-80.665
-83.161
-85.242
-86.907
-87.68
-87.493
-86.718
-85.46
-83.702
-81.523
-78.983
-76.115
-72.948
-69.477
-65.69
-61.636
-57.409
-53.091
-48.732
-44.36
-39.99
-35.631
-31.281
-26.932
-22.556
-18.117
-13.589
-8.954
-4.196
0.695
5.732
10.933
16.311
21.882
27.655
33.636
39.826
46.226
52.829
59.626
66.603
73.741
81.02
88.422
95.924
103.505
111.141
118.804
126.465
134.098
141.668
149.144
156.488
163.664
170.634
177.359
183.8
189.918
195.674
201.03
205.948
210.393
214.329
217.725
220.55
222.775
224.376
225.329
225.614
225.215
224.119
222.315
219.799
216.568
212.624
207.973
202.624
196.589
189.887
182.535
174.557
165.979
156.829
147.14
136.945
126.281
115.188
103.707
91.88
79.75
67.364
54.766
42.002
29.119
16.161
3.174
-9.798
-22.712
-35.526
-48.199
-60.692
-72.969
-84.993
-96.734
-108.16
-119.244
-129.962
-140.291
-150.213
-159.711
-168.771
-177.381
-185.534
-193.222
-200.442
-207.193
-213.475
-219.292
-224.649
-229.553
-234.014
-238.042
-241.649
-244.849
-247.656
-250.085
-252.154
-253.878
-255.275
-256.363
-257.161
-257.686
-257.956
-257.991
-257.808
-257.424
-256.856
-256.12
-255.232
-254.207
-253.059
-251.802
-250.447
-249.008
-247.496
-245.921
-244.293
-242.622
-240.915
-239.181
-237.427
-235.658
-233.882
-232.103
-230.327
-228.558
-226.8
-225.058
-223.334
-221.633
-219.956
-218.306
-216.686
-215.098
-213.542
-212.022
-210.538
-209.093
-207.687
-206.323
-205.001
-203.723
-202.491
-201.304
-200.164
-199.072
-198.027
-197.031
-196.083
-195.184
-194.334
-193.531
-192.776
-192.067
-191.403
-190.784
-190.206
-189.668
-189.168
-188.703
-188.272
-187.872
-187.5
-187.154
-186.832
-186.531
-186.249
-185.983
-185.729
-185.486
-185.251
-185.02
-184.793
-184.566
-184.337
-184.104
-183.866
-183.621
-183.368
-183.105
-182.832
-182.547
-182.251
-181.943
-181.624
-181.294
-180.955
-180.608
-180.254
-179.895
-179.534
-179.171
-178.808
-178.446
-178.088
-177.734
-177.386
-177.045
-176.712
-176.387
-176.072
-175.767
-175.473
-175.189
-174.915
-174.649
-174.392
-174.142
-173.898
-173.658
-173.421
-173.183
-172.944
-172.701
-172.451
-172.19
-171.915
-171.621
-171.305
-170.962
-170.587
-170.176
-169.725
-169.23
-168.687
-168.093
-167.444
-166.738
-165.97
-165.138
-164.242
-163.277
-162.244
-161.14
-159.966
-158.721
-157.405
-156.019
-154.563
-153.039
-151.445
-149.785
-148.058
-146.264
-144.406
-142.483
-140.497
-138.45
-136.344
-134.183
-131.966
-129.698
-127.379
-125.013
-122.602
-120.146
-117.646
-115.104
-112.522
-109.9
-107.24
-104.542
-101.806
-99.033
-96.225
-93.38
-90.501
-87.587
-84.638
-81.655
-78.64
-75.596
-72.524
-69.431
-66.323
-63.208
-60.096
-56.998
-53.925
-50.886
-47.891
-44.95
-42.072
-39.262
-36.528
-33.878
-31.322
-28.873
-26.543
-24.341
-22.277
-20.358
-18.593
-16.99
-15.551
-14.272
-13.155
-12.208
-11.45
-10.907
-10.599
-10.527
-10.691
-11.084
-11.696
-12.509
-13.487
-14.57
-15.704
-16.841
-17.951
-19.016
-19.991
-20.809
-21.388
-21.635
-21.49
-20.935
-19.955
-18.524
-16.651
-14.361
-11.718
-8.862
-5.913
-2.967
-0.124
2.519
4.839
6.63
7.616
7.637
6.713
5.091
3.23
1.534
0.318
-0.028
1.064
4.012
8.727
14.459
19.782
23.427
24.768
23.545
19.564
12.903
4.469
-3.634
-7.986
-5.06
7.606
31.543
67.928
117.815
181.319
257.046
341.753
430.995
521.145
609.668
693.464
768.754
831.147
875.49
900.026
905.974
895.279
873.369
842.246
799.067
741.255
659.639
548.282
414.576
270.001
137.213
41.833
-8.889
-17.068
4.158
31.752
54.289
68.11
73.377
77.159
82.455
88.023
92.766
94.307
91.924
87.249
82.343
79.17
78.691
80.805
84.919
90.295
96.335
102.488
108.094
112.512
115.397
116.69
116.551
115.28
113.146
110.352
107.115
103.666
100.202
96.938
94.074
91.72
89.952
88.832
88.373
88.6
89.519
91.08
93.21
95.837
98.89
102.317
106.081
110.123
114.374
118.756
123.184
127.602
131.98
136.294
140.534
144.696
148.785
152.827
156.862
160.924
165.039
169.226
173.5
177.881
182.397
187.069
191.92
196.965
202.218
207.692
213.394
219.332
225.503
231.905
238.527
245.361
252.399
259.628
267.035
274.607
282.323
290.164
298.108
306.129
314.198
322.284
330.353
338.368
346.294
354.091
361.72
369.139
376.308
383.186
389.732
395.905
401.664
406.972
411.791
416.086
419.823
422.97
425.499
427.384
428.601
429.132
428.96
428.072
426.46
424.117
421.043
417.24
412.714
407.475
401.536
394.914
387.631
379.711
371.182
362.075
352.424
342.266
331.639
320.586
309.15
297.375
285.308
272.995
260.484
247.823
235.06
222.243
209.418
196.631
183.929
171.354
158.947
146.75
134.798
123.128
111.772
100.76
90.118
79.872
70.042
60.647
51.703
43.223
35.216
27.69
20.648
14.093
8.023
2.434
-2.68
-7.328
-11.52
-15.27
-18.591
-21.501
-24.017
-26.158
-27.945
-29.4
-30.544
-31.4
-31.991
-32.342
-32.474
-32.41
-32.173
-31.785
-31.266
-30.637
-29.916
-29.121
-28.27
-27.378
-26.46
-25.53
-24.601
-23.684
-22.789
-21.926
-21.102
-20.326
-19.602
-18.936
-18.332
-17.793
-17.321
-16.918
-16.585
-16.32
-16.123
-15.991
-15.923
-15.915
-15.964
-16.067
-16.219
-16.418
-16.66
-16.941
-17.259
-17.611
-17.995
-18.409
-18.851
-19.32
-19.816
-20.338
-20.886
-21.459
-22.06
-22.688
-23.345
-24.032
-24.75
-25.499
-26.283
-27.1
-27.954
-28.846
-29.777
-30.75
-31.766
-32.828
-33.938
-35.098
-36.311
-37.578
-38.902
-40.282
-41.721
-43.217
-44.771
-46.381
-48.047
-49.766
-51.535
-53.351
-55.209
-57.105
-59.032
-60.986
-62.958
-64.943
-66.932
-68.919
-70.895
-72.852
-74.783
-76.679
-78.532
-80.334
-82.075
-83.747
-85.34
-86.847
-88.256
-89.559
-90.748
-91.814
-92.748
-93.544
-94.193
-94.69
-95.028
-95.203
-95.211
-95.047
-94.711
-94.2
-93.516
-92.658
-91.63
-90.434
-89.075
-87.559
-85.891
-84.078
-82.128
-80.049
-77.85
-75.54
-73.131
-70.634
-68.06
-65.422
-62.734
-60.009
-57.261
-54.504
-51.754
-49.025
-46.333
-43.691
-41.115
-38.62
-36.219
-33.927
-31.756
-29.718
-27.826
-26.089
-24.517
-23.118
-21.9
-20.868
-20.029
-19.386
-18.942
-18.699
-18.659
-18.82
-19.183
-19.744
-20.499
-21.445
-22.574
-23.881
-25.357
-26.993
-28.78
-30.706
-32.759
-34.926
-37.195
-39.549
-41.974
-44.454
-46.972
-49.513
-52.06
-54.597
-57.107
-59.576
-61.986
-64.324
-66.574
-68.723
-70.757
-72.661
-74.425
-76.038
-77.488
-78.767
-79.866
-80.777
-81.496
-82.018
-82.339
-82.458
-82.374
-82.089
-81.604
-80.924
-80.055
-79.004
-77.784
-76.409
-74.893
-73.254
-71.51
-69.682
-67.79
-65.853
-63.892
-61.924
-59.968
-58.043
-56.172
-54.376
-52.681
-51.11
-49.683
-48.421
-47.345
-46.475
-45.829
-45.415
-45.24
-45.315
-45.657
-46.299
-47.263
-48.557
-50.181
-52.131
-54.388
-56.936
-59.74
-62.737
-65.865
-69.064
-72.282
-75.492
-78.663
-81.737
-84.643
-87.282
-89.574
-91.487
-93.01
-94.131
-94.864
-95.235
-95.325
-95.286
-95.248
-95.328
-95.625
-96.207
-97.172
-98.659
-100.784
-103.722
-107.669
-112.625
-118.446
-124.865
-131.411
-137.668
-143.308
-147.801
-150.482
-150.965
-149.242
-145.823
-141.689
-137.5
-133.359
-129.268
-125.442
-122.113
-118.962
-114.627
-106.717
-92.947
-71.986
-43.227
-5.659
42.388
102.127
173.706
254.237
338.341
421.714
501.094
577.565
656.139
737.643
818.391
883.628
909.413
880.248
791.047
656.921
509.705
373.654
265.296
185.142
119.388
61.027
6.244
-43.391
-79.373
-99.231
-104.373
-97.845
-86.598
-76.055
-68.617
-65.738
-67.431
-72.8
-81.007
-90.986
-100.917
-108.89
-113.875
-115.426
-113.681
-109.4
-103.35
-96.271
-89.113
-82.769
-77.741
-74.269
-72.357
-71.79
-72.384
-73.971
-76.322
-79.208
-82.467
-85.982
-89.627
-93.268
-96.726
-99.792
-102.325
-104.236
-105.462
-105.974
-105.764
-104.847
-103.273
-101.113
-98.427
-95.263
-91.664
-87.668
-83.331
-78.723
-73.916
-68.987
-63.99
-58.954
-53.904
-48.849
-43.787
-38.706
-33.578
-28.367
-23.05
-17.618
-12.044
-6.309
-0.392
5.733
12.069
18.612
25.384
32.408
39.645
47.068
54.645
62.333
70.144
78.118
86.201
94.318
102.597
111.197
119.985
128.944
138.081
146.982
156.65
168.058
179.731
191.193
199.76
202.226
202.056
201.544
204.128
214.547
228.534
242.469
253.86
258.615
259.601
259.724
259.611
261.025
262.903
263.887
264.216
263.706
262.437
260.674
258.24
254.994
250.989
246.246
240.761
234.556
227.662
220.108
211.949
203.245
194.02
184.299
174.125
163.54
152.588
141.318
129.773
117.996
106.037
93.945
81.771
69.566
57.378
45.255
33.243
21.381
9.718
-1.699
-12.845
-23.691
-34.211
-44.387
-54.182
-63.555
-72.498
-81.012
-89.045
-96.558
-103.521
-109.895
-115.706
-121.014
-125.791
-129.987
-133.76
-137.302
-140.518
-143.435
-146.104
-148.162
-150.66
-154.624
-158.642
-162.304
-162.999
-157.598
-149.616
-141.403
-136.447
-139.529
-146.463
-153.704
-158.828
-157.814
-153.569
-149.037
-144.884
-142.908
-142.085
-141.095
-140.201
-139.241
-138.309
-137.681
-137.184
-136.678
-136.211
-135.793
-135.405
-135.05
-134.734
-134.46
-134.25
-134.129
-134.079
-134.085
-134.145
-134.252
-134.401
-134.589
-134.807
-135.044
-135.299
-135.567
-135.846
-136.131
-136.419
-136.707
-136.993
-137.275
-137.551
-137.821
-138.083
-138.338
-138.585
-138.825
-139.061
-139.292
-139.522
-139.753
-139.987
-140.227
-140.476
-140.735
-141.009
-141.298
-141.605
-141.933
-142.284
-142.659
-143.061
-143.491
-143.95
-144.438
-144.956
-145.505
-146.081
-146.685
-147.315
-147.968
-148.642
-149.334
-150.042
-150.763
-151.494
-152.232
-152.972
-153.713
-154.45
-155.178
-155.894
-156.594
-157.274
-157.93
-158.558
-159.156
-159.72
-160.247
-160.735
-161.182
-161.585
-161.944
-162.255
-162.52
-162.736
-162.903
-163.024
-163.098
-163.128
-163.117
-163.067
-162.982
-162.866
-162.723
-162.557
-162.372
-162.174
-161.966
-161.754
-161.542
-161.336
-161.14
-160.961
-160.803
-160.672
-160.57
-160.503
-160.474
-160.486
-160.542
-160.644
-160.796
-160.998
-161.252
-161.561
-161.924
-162.342
-162.814
-163.338
-163.912
-164.534
-165.198
-165.899
-166.632
-167.391
-168.169
-168.958
-169.753
-170.545
-171.324
-172.083
-172.813
-173.504
-174.148
-174.735
-175.255
-175.701
-176.066
-176.342
-176.523
-176.602
-176.573
-176.432
-176.175
-175.798
-175.299
-174.675
-173.923
-173.045
-172.043
-170.92
-169.678
-168.323
-166.862
-165.307
-163.673
-161.975
-160.227
-158.448
-156.653
-154.858
-153.083
-151.34
-149.643
-148.004
-146.436
-144.956
-143.582
-142.329
-141.215
-140.254
-139.447
-138.799
-138.326
-138.031
-137.918
-138
-138.286
-138.781
-139.507
-140.46
-141.587
-142.847
-144.223
-145.674
-147.156
-148.676
-150.233
-151.845
-153.755
-156.159
-158.799
-161.542
-164.395
-166.821
-169.496
-173.104
-175.972
-177.74
-176.339
-168.066
-154.674
-137.888
-122.233
-117.549
-127.271
-150.525
-180.743
-202.975
-207.343
-191.975
-162.825
-133.754
-115
-109.878
-116.084
-126.168
-134.719
-139.748
-141.066
-140.921
-141.057
-141.766
-143.108
-144.828
-147.082
-149.475
-149.997
-146.586
-137.68
-125.063
-113.495
-103.722
-90.169
-61.038
-3.957
84.563
196.909
317.128
430.234
528.118
608.221
672.837
723.642
758.786
775.996
772.693
746.283
698.076
633.456
557.293
474.141
384.756
284.101
172.258
55.08
-55.179
-139.134
-185.349
-190.201
-158.803
-108.651
-55.943
-16.201
-0.327
-6.199
-26.589
-49.814
-65.204
-70.043
-66.309
-59.338
-53.2
-48.691
-45.096
-40.565
-34.535
-27.767
-20.994
-15.163
-10.896
-8.185
-6.968
-7.115
-8.29
-10.227
-12.748
-15.65
-18.748
-21.88
-24.831
-27.368
-29.369
-30.749
-31.437
-31.414
-30.645
-29.113
-26.864
-23.966
-20.487
-16.496
-12.046
-7.177
-1.95
3.566
9.29
15.131
21.029
26.947
32.854
38.736
44.583
50.388
56.17
61.963
67.794
73.69
79.666
85.733
91.906
98.207
104.651
111.26
118.042
125
132.139
139.467
146.992
154.734
162.691
170.844
179.171
187.639
196.216
204.878
213.589
222.297
230.968
239.579
248.125
256.631
265.098
273.507
281.824
289.986
297.957
305.73
313.299
320.665
327.834
334.797
341.58
348.244
354.798
361.214
367.411
373.24
378.598
383.42
387.657
391.293
394.287
396.57
398.089
398.803
398.658
397.61
395.569
392.396
388.029
382.474
375.802
368.177
359.719
350.5
340.602
330.086
319.028
307.527
295.65
283.441
270.971
258.32
245.611
233.019
220.656
208.575
196.787
185.237
173.899
162.789
151.91
141.266
130.866
120.709
110.818
101.254
92.048
83.196
74.663
66.382
58.317
50.501
42.996
35.867
29.177
23.015
17.484
12.685
8.686
5.439
2.789
0.626
-1.217
-3.114
-5.327
-7.852
-10.66
-13.407
-16.351
-21.131
-28.776
-38.21
-44.913
-41.118
-21.051
13.126
49.534
70.778
63.04
25.897
-25.146
-67.166
-81.875
-64.741
-27.412
10.981
35.978
42.466
35.239
24.208
15.784
12.022
12.013
12.88
13.445
13.976
14.622
15.696
17.146
18.572
19.828
20.902
21.73
22.303
22.675
22.905
23.067
23.225
23.389
23.541
23.682
23.819
23.954
24.088
24.216
24.335
24.448
24.563
24.685
24.815
24.956
25.107
25.27
25.444
25.631
25.83
26.039
26.259
26.487
26.723
26.964
27.21
27.457
27.705
27.95
28.191
28.425
28.649
28.863
29.064
29.25
29.42
29.574
29.708
29.823
29.917
29.99
30.04
30.067
30.071
30.05
30.005
29.936
29.842
29.725
29.584
29.419
29.233
29.026
28.799
28.552
28.288
28.009
27.719
27.419
27.105
26.777
26.433
26.076
25.71
25.333
24.931
24.511
24.096
23.707
23.363
23.066
22.775
22.487
22.249
22.028
21.73
21.281
20.598
19.674
18.638
17.519
16.184
14.765
13.706
13.131
12.989
13.337
13.676
14.762
19.022
25.805
32.662
35.946
29.095
12.624
-6.462
-22.142
-26.984
-20.133
-8.626
3.765
15.376
24.69
32.554
37.204
33.203
20.85
5.232
-8.81
-14.659
-11.281
-4.098
3.412
8.436
10.14
10.975
12.012
13.158
14.515
15.741
16.786
18.037
19.607
21.413
23.451
25.736
28.248
30.969
33.854
36.827
39.858
42.958
46.121
49.326
52.555
55.787
59.006
62.201
65.354
68.442
71.441
74.327
77.079
79.674
82.09
84.305
86.297
88.05
89.554
90.796
91.767
92.448
92.813
92.844
92.531
91.868
90.856
89.504
87.831
85.875
83.699
81.36
78.918
76.416
73.885
71.36
68.883
66.513
64.328
62.387
60.738
59.416
58.442
57.834
57.573
57.572
57.696
57.807
57.789
57.593
57.181
56.48
55.413
53.852
51.676
48.836
45.247
40.817
35.616
29.815
23.773
18.133
13.486
10.309
9.191
10.545
14.363
20.37
27.855
35.881
43.962
51.854
59.151
65.708
72.054
79.461
90.025
105.847
128.146
157.69
195.582
242.913
299.937
365.699
437.782
513.4
590.495
666.956
739.328
803.449
855.53
892.019
910.669
909.835
887.069
842.516
780.231
704.172
617.346
519.707
408.07
285.108
162.128
56.755
-13.812
-42.552
-34.903
-7.185
24.077
49.417
65.649
76.66
86.174
94.477
100.951
103.311
99.785
88.182
65.387
31.817
-8.266
-45.495
-66.517
-64.217
-40.095
-1.317
38.078
65.786
77.604
71.797
53.234
32.11
14.105
4.152
3.322
5.917
8.375
8.479
5.226
1.026
-2.701
-5.923
-8.565
-11.011
-13.365
-15.212
-16.308
-16.669
-16.349
-15.416
-13.957
-12.039
-9.722
-7.117
-4.317
-1.368
1.661
4.716
7.767
10.788
13.771
16.721
19.64
22.54
25.449
28.391
31.388
34.46
37.616
40.868
44.23
47.716
51.338
55.107
59.026
63.098
67.321
71.692
76.204
80.846
85.604
90.46
95.4
100.408
105.465
110.554
115.652
120.737
125.784
130.767
135.656
140.42
145.026
149.44
153.629
157.557
161.19
164.493
167.432
169.973
172.084
173.733
174.889
175.525
175.613
175.13
174.054
172.366
170.05
167.092
163.483
159.216
154.286
148.695
142.444
135.539
127.99
119.808
111.01
101.614
91.642
81.12
70.075
58.539
46.546
34.131
21.333
8.191
-5.254
-18.959
-32.881
-46.977
-61.203
-75.514
-89.866
-104.217
-118.523
-132.743
-146.837
-160.766
-174.493
-187.984
-201.206
-214.129
-226.725
-238.969
-250.837
-262.31
-273.368
-283.998
-294.186
-303.923
-313.201
-322.018
-330.371
-338.261
-345.692
-352.671
-359.204
-365.303
-370.98
-376.247
-381.121
-385.619
-389.758
-393.558
-397.04
-400.224
-403.131
-405.785
-408.205
-410.415
-412.435
-414.287
-415.99
-417.566
-419.032
-420.407
-421.709
-422.954
-424.157
-425.333
-426.495
-427.655
-428.824
-430.012
-431.226
-432.475
-433.763
-435.097
-436.481
-437.916
-439.406
-440.951
-442.551
-444.205
-445.912
-447.668
-449.471
-451.316
-453.199
-455.116
-457.062
-459.031
-461.019
-463.02
-465.029
-467.041
-469.051
-471.055
-473.047
-475.025
-476.984
-478.92
-480.831
-482.714
-484.565
-486.383
-488.166
-489.91
-491.615
-493.279
-494.899
-496.474
-498.003
-499.485
-500.919
-502.303
-503.638
-504.922
-506.154
-507.334
-508.462
-509.535
-510.552
-511.51
-512.407
-513.247
-514.029
-514.753
-515.418
-516.014
-516.539
-517.002
-517.393
-517.685
-517.858
-517.887
-517.766
-517.523
-517.156
-516.626
-515.954
-515.207
-514.438
-513.707
-513.014
-512.257
-511.404
-510.553
-509.591
-508.14
-506.126
-503.652
-500.666
-497.573
-493.598
-486.437
-476.641
-466.301
-458.951
-461.165
-472.39
-486.071
-495.626
-491.713
-473.951
-451.138
-430.063
-418.122
-416.448
-418.459
-420.174
-418.813
-413.612
-407.274
-400.988
-394.683
-388.454
-381.902
-374.942
-367.944
-361.022
-354.12
-347.254
-340.448
-333.692
-326.976
-320.271
-313.518
-306.704
-299.859
-292.995
-286.11
-279.205
-272.278
-265.33
-258.367
-251.391
-244.395
-237.376
-230.331
-223.257
-216.153
-209.016
-201.844
-194.634
-187.385
-180.096
-172.766
-165.396
-157.987
-150.543
-143.067
-135.566
-128.047
-120.518
-112.992
-105.479
-97.991
-90.543
-83.15
-75.828
-68.592
-61.456
-54.44
-47.56
-40.837
-34.291
-27.945
-21.82
-15.938
-10.324
-4.996
0.024
4.719
9.077
13.083
16.727
19.992
22.858
25.309
27.338
28.942
30.124
30.895
31.271
31.282
30.976
30.394
29.58
28.565
27.371
26.023
24.556
23.014
21.461
19.952
18.529
17.226
16.063
15.053
14.196
13.441
12.697
11.878
10.921
9.817
8.57
7.157
5.541
3.66
1.437
-1.162
-4.204
-7.813
-11.973
-16.53
-21.243
-25.614
-29.096
-31.308
-31.766
-29.898
-25.566
-19.03
-10.727
-1.6
7.18
15.031
21.382
25.122
27.129
29.103
31.209
35.643
42.502
50.657
65.599
91.926
134.694
198.988
279.382
369.319
462.392
550.603
632.224
704.689
763.253
804.995
825.54
821.964
794.491
744.215
674.256
589.557
495.601
398.527
304.341
218.494
145.527
88.208
47.393
22.368
11.053
10.313
16.73
26.402
35.478
41.543
43.383
40.677
34.118
24.901
14.32
4.185
-3.644
-8.244
-9.255
-6.778
-1.474
5.968
14.856
24.244
33.266
41.451
48.553
54.557
59.618
63.82
67.257
70.09
72.47
74.534
76.378
78.049
79.631
81.244
83.038
85.184
87.8
90.937
94.636
98.9
103.713
109.063
114.904
121.172
127.815
134.78
142.017
149.487
157.131
164.875
172.643
180.357
187.96
195.424
202.732
209.877
216.865
223.708
230.429
237.063
243.633
250.147
256.621
263.063
269.496
275.954
282.459
289.023
295.655
302.354
309.116
315.928
322.756
329.542
336.23
342.779
349.175
355.422
361.521
367.471
373.266
378.9
384.396
389.783
395.077
400.281
405.4
410.462
415.532
420.721
426.111
431.733
437.572
443.572
449.679
455.825
461.917
467.831
473.396
478.452
482.878
486.583
489.475
491.436
492.292
491.834
489.897
486.386
481.257
474.512
466.158
456.238
444.854
432.167
418.398
403.734
388.314
372.25
355.656
338.67
321.477
304.285
287.252
270.504
254.141
238.225
222.825
207.975
193.659
179.823
166.378
153.252
140.426
127.957
115.896
104.259
93.027
82.14
71.573
61.347
51.463
41.719
31.872
22.042
12.348
2.843
-6.094
-15.397
-25.762
-35.61
-44.579
-49.877
-48.569
-43.65
-35.531
-28.289
-28.777
-35.713
-51.204
-72.358
-89.165
-98.857
-96.268
-81.594
-64.525
-50.039
-43.289
-45.694
-51.262
-56.522
-59.323
-58.758
-57.076
-55.42
-53.74
-52.116
-50.208
-47.952
-45.689
-43.554
-41.533
-39.631
-37.853
-36.199
-34.657
-33.199
-31.775
-30.363
-28.986
-27.65
-26.354
-25.093
-23.864
-22.663
-21.493
-20.35
-19.229
-18.121
-17.024
-15.932
-14.842
-13.753
-12.66
-11.561
-10.454
-9.334
-8.199
-7.047
-5.874
-4.679
-3.46
-2.214
-0.941
0.36
1.687
3.041
4.418
5.819
7.241
8.682
10.139
11.61
13.093
14.584
16.081
17.581
19.082
20.579
22.071
23.556
25.03
26.493
27.942
29.377
30.797
32.2
33.585
34.953
36.302
37.632
38.941
40.229
41.496
42.742
43.966
45.169
46.352
47.516
48.66
49.787
50.898
51.992
53.071
54.136
55.188
56.228
57.257
58.277
59.287
60.291
61.288
62.279
63.266
64.249
65.229
66.205
67.178
68.149
69.118
70.087
71.057
72.028
73.002
73.98
74.965
75.957
76.957
77.967
78.988
80.022
81.07
82.135
83.218
84.323
85.453
86.611
87.8
89.024
90.287
91.59
92.938
94.334
95.781
97.283
98.844
100.467
102.155
103.913
105.743
107.648
109.629
111.689
113.827
116.044
118.34
120.714
123.164
125.687
128.282
130.945
133.672
136.457
139.294
142.175
145.09
148.027
150.973
153.912
156.827
159.702
162.517
165.255
167.896
170.423
172.819
175.066
177.147
179.043
180.735
182.199
183.416
184.364
185.024
185.377
185.404
185.094
184.437
183.429
182.062
180.323
178.188
175.643
172.675
169.282
165.466
161.239
156.622
151.657
146.406
140.931
135.296
129.552
123.734
117.886
112.054
106.301
100.705
95.328
90.213
85.396
80.905
76.74
72.865
69.186
65.552
61.832
57.924
53.731
49.171
44.142
38.539
32.255
25.207
17.285
8.328
-1.659
-12.558
-24.125
-35.846
-47.128
-57.411
-65.996
-72.113
-75.517
-76.23
-74.427
-71.141
-67.534
-64.455
-63.106
-63.43
-63.32
-61.079
-55.932
-49.41
-45.197
-43.468
-38.09
-16.78
33.133
116.412
227.234
350.21
469.441
575.162
663.509
735.99
792.814
830.646
845.615
833.561
793.994
731.088
648.541
549.756
437.333
311.721
180.046
54.766
-51.811
-127.813
-172.501
-193.07
-197.421
-193.011
-181.077
-163.311
-143.027
-125.202
-116.69
-116.615
-122.202
-129.991
-134.697
-137.529
-139.701
-140.504
-141.003
-140.025
-136.651
-131.909
-126.292
-120.468
-115.372
-111.472
-108.967
-107.958
-108.292
-109.602
-111.589
-114.059
-116.781
-119.53
-122.127
-124.329
-125.923
-126.818
-126.944
-126.252
-124.735
-122.375
-119.171
-115.19
-110.516
-105.23
-99.417
-93.138
-86.448
-79.423
-72.147
-64.712
-57.213
-49.714
-42.257
-34.874
-27.584
-20.402
-13.331
-6.354
0.558
7.427
14.269
21.096
27.913
34.736
41.584
48.471
55.415
62.427
69.515
76.687
83.951
91.308
98.759
106.298
113.917
121.609
129.366
137.181
145.044
152.943
160.865
168.794
176.714
184.606
192.445
200.207
207.866
215.39
222.752
229.917
236.853
243.525
249.899
255.94
261.612
266.88
271.71
276.067
279.918
283.232
285.979
288.129
289.656
290.536
290.747
290.271
289.092
287.197
284.576
281.223
277.136
272.314
266.761
260.485
253.495
245.806
237.435
228.403
218.735
208.458
197.603
186.202
174.291
161.91
149.097
135.894
122.344
108.492
94.382
80.061
65.573
50.965
36.282
21.569
6.87
-7.773
-22.318
-36.725
-50.957
-64.977
-78.751
-92.249
-105.44
-118.298
-130.797
-142.916
-154.636
-165.938
-176.809
-187.237
-197.213
-206.729
-215.781
-224.368
-232.489
-240.148
-247.35
-254.1
-260.408
-266.282
-271.735
-276.779
-281.427
-285.693
-289.593
-293.141
-296.353
-299.245
-301.834
-304.134
-306.163
-307.935
-309.465
-310.768
-311.858
-312.748
-313.451
-313.98
-314.344
-314.557
-314.628
-314.567
-314.383
-314.085
-313.68
-313.176
-312.58
-311.897
-311.133
-310.293
-309.382
-308.403
-307.362
-306.262
-305.107
-303.902
-302.65
-301.355
-300.022
-298.654
-297.256
-295.832
-294.385
-292.922
-291.446
-289.962
-288.477
-286.996
-285.523
-284.066
-282.63
-281.221
-279.844
-278.504
-277.207
-275.959
-274.765
-273.629
-272.556
-271.552
-270.621
-269.767
-268.994
-268.304
-267.702
-267.189
-266.766
-266.436
-266.199
-266.055
-266.005
-266.049
-266.186
-266.416
-266.738
-267.148
-267.647
-268.23
-268.895
-269.638
-270.457
-271.346
-272.302
-273.32
-274.397
-275.527
-276.706
-277.929
-279.189
-280.481
-281.8
-283.138
-284.491
-285.852
-287.214
-288.571
-289.917
-291.245
-292.549
-293.82
-295.053
-296.238
-297.368
-298.433
-299.425
-300.333
-301.148
-301.86
-302.46
-302.937
-303.281
-303.481
-303.527
-303.409
-303.115
-302.636
-301.961
-301.08
-299.983
-298.664
-297.112
-295.321
-293.284
-290.994
-288.445
-285.635
-282.558
-279.212
-275.595
-271.708
-267.552
-263.13
-258.449
-253.515
-248.337
-242.93
-237.307
-231.482
-225.476
-219.309
-213.003
-206.58
-200.062
-193.464
-186.816
-180.147
-173.469
-166.803
-160.168
-153.58
-147.078
-140.71
-134.486
-128.418
-122.566
-116.973
-111.681
-106.741
-102.146
-97.867
-93.962
-90.499
-87.334
-84.29
-81.47
-78.851
-76.364
-74.343
-71.674
-67.279
-62.592
-58.042
-56.305
-60.575
-67.219
-73.782
-76.655
-70.932
-60.907
-50.221
-41.408
-38.668
-39.138
-39.978
-40.637
-39.351
-37.264
-35.752
-34.537
-33.842
-33.622
-33.654
-34.215
-35.54
-37.617
-40.531
-44.498
-49.203
-53.77
-57.544
-59.719
-60.174
-60.382
-60.107
-57.425
-49.722
-32.456
-5.456
25.267
51.088
62.02
54.515
34.941
15.463
8.413
21.467
55.233
104.024
163.723
230.472
300.084
373.342
449.921
531.281
621.198
716.301
806.712
876.518
908.761
894.72
838.601
756.109
663.386
570.046
475.417
371.143
254.45
133.03
23.902
-54.267
-93.158
-97.375
-81.835
-62.383
-47.919
-40.493
-36.636
-33.014
-29.229
-26.502
-26.897
-30.753
-36.714
-42.758
-46.671
-47.513
-45.328
-40.519
-33.891
-26.231
-18.217
-10.668
-4.35
0.352
3.308
4.606
4.51
3.256
1.064
-1.821
-5.153
-8.709
-12.286
-15.673
-18.677
-21.151
-22.981
-24.091
-24.442
-24.01
-22.793
-20.838
-18.213
-14.985
-11.221
-6.976
-2.296
2.746
8.071
13.591
19.218
24.89
30.57
36.23
41.854
47.438
52.987
58.523
64.081
69.684
75.348
81.087
86.906
92.82
98.845
104.996
111.284
117.716
124.296
131.026
137.905
144.928
152.083
159.358
166.734
174.196
181.725
189.307
196.92
204.546
212.161
219.741
227.26
234.69
242
249.157
256.127
262.875
269.367
275.566
281.436
286.944
292.054
296.732
300.947
304.667
307.861
310.504
312.567
314.029
314.866
315.062
314.6
313.468
311.655
309.157
305.97
302.094
297.535
292.299
286.398
279.846
272.66
264.864
256.481
247.539
238.07
228.109
217.692
206.86
195.654
184.117
172.294
160.23
147.973
135.569
123.066
110.51
97.949
85.429
72.997
60.697
48.572
36.667
25.02
13.671
2.656
-7.991
-18.236
-28.052
-37.411
-46.288
-54.662
-62.515
-69.83
-76.595
-82.8
-88.439
-93.507
-98.003
-101.93
-105.292
-108.095
-110.348
-112.062
-113.25
-113.926
-114.106
-113.806
-113.047
-111.846
-110.225
-108.206
-105.812
-103.065
-99.988
-96.606
-92.942
-89.021
-84.866
-80.501
-75.95
-71.236
-66.381
-61.409
-56.34
-51.197
-45.997
-40.762
-35.507
-30.251
-25.009
-19.795
-14.623
-9.507
-4.458
0.512
5.393
10.174
14.846
19.401
23.83
28.127
32.285
36.298
40.161
43.87
47.419
50.805
54.024
57.074
59.952
62.656
65.185
67.538
69.715
71.715
73.539
75.188
76.661
77.959
79.082
80.032
80.807
81.41
81.84
82.099
82.187
82.106
81.857
81.442
80.862
80.119
79.214
78.149
76.927
75.548
74.015
72.332
70.5
68.523
66.405
64.147
61.755
59.23
56.576
53.796
50.893
47.869
44.728
41.474
38.109
34.639
31.067
27.399
23.638
19.791
15.862
11.857
7.781
3.641
-0.557
-4.807
-9.1
-13.428
-17.785
-22.16
-26.545
-30.931
-35.309
-39.67
-44.006
-48.308
-52.565
-56.769
-60.91
-64.977
-68.958
-72.843
-76.619
-80.276
-83.801
-87.184
-90.413
-93.478
-96.368
-99.071
-101.579
-103.882
-105.97
-107.833
-109.462
-110.852
-111.994
-112.886
-113.521
-113.898
-114.014
-113.869
-113.464
-112.799
-111.876
-110.698
-109.268
-107.592
-105.674
-103.524
-101.15
-98.567
-95.789
-92.833
-89.718
-86.463
-83.089
-79.617
-76.067
-72.459
-68.809
-65.136
-61.465
-57.819
-54.225
-50.706
-47.279
-43.967
-40.799
-37.79
-34.938
-32.243
-29.691
-27.292
-25.087
-23.098
-21.325
-19.815
-18.647
-17.88
-17.572
-17.718
-18.216
-19.012
-20.143
-21.45
-22.534
-23.283
-23.765
-23.896
-23.993
-23.267
-19.508
-13.168
-6.133
-1.652
-5.759
-17.913
-32.127
-42.414
-40.304
-25.649
-6.674
10.266
18.239
16.121
9.842
2.864
-2.481
-5.602
-8.935
-13.332
-18.305
-23.551
-28.377
-32.216
-34.774
-35.678
-34.68
-32.205
-29.203
-26.381
-24.2
-22.965
-22.904
-24.253
-26.845
-29.293
-29.182
-24.109
-11.822
9.431
41.285
85.687
143.858
215.399
298.226
389.24
484.86
581.389
674.066
756.971
824.662
872.353
896.696
896.153
869.484
817.422
744.732
655.98
555.036
445.308
326.612
204.251
90.233
-4.395
-68.621
-101.347
-112.392
-111.074
-107.111
-105.068
-103.066
-101.375
-99.99
-99.267
-101.733
-107.715
-116.368
-126.901
-137.22
-145.45
-150.952
-153.546
-153.653
-152.182
-149.822
-147.14
-144.852
-143.652
-143.938
-145.861
-149.322
-154.02
-159.678
-166.075
-172.988
-180.184
-187.451
-194.591
-201.383
-207.639
-213.222
-218.023
-221.976
-225.047
-227.213
-228.477
-228.892
-228.535
-227.48
-225.803
-223.556
-220.785
-217.56
-213.959
-210.07
-205.985
-201.765
-197.448
-193.064
-188.632
-184.158
-179.642
-175.061
-170.38
-165.575
-160.628
-155.525
-150.256
-144.807
-139.155
-133.285
-127.18
-120.827
-114.217
-107.343
-100.198
-92.781
-85.095
-77.147
-68.947
-60.507
-51.834
-42.94
-33.839
-24.544
-15.073
-5.446
4.318
14.195
24.158
34.178
44.225
54.267
64.271
74.201
84.023
93.7
103.195
112.471
121.491
130.217
138.613
146.642
154.27
161.464
168.193
174.425
180.131
185.283
189.858
193.836
197.204
199.942
202.034
203.482
204.292
204.469
204.028
202.963
201.266
198.964
196.091
192.627
188.564
183.906
178.643
172.835
166.572
159.854
152.658
145.175
137.625
129.937
122.16
114.366
106.202
98.768
93.139
87.871
82.555
74.509
60.514
44.202
28
15.506
11.652
12.12
13.254
12.548
5.853
-3.841
-13.507
-22.467
-28.878
-33.806
-38.625
-43.076
-47.34
-51.331
-54.78
-57.881
-60.79
-63.473
-65.935
-68.207
-70.302
-72.226
-73.991
-75.589
-77.004
-78.268
-79.411
-80.444
-81.385
-82.25
-83.051
-83.807
-84.534
-85.242
-85.941
-86.639
-87.346
-88.067
-88.81
-89.577
-90.373
-91.199
-92.056
-92.944
-93.863
-94.81
-95.782
-96.776
-97.786
-98.809
-99.839
-100.869
-101.895
-102.908
-103.904
-104.876
-105.816
-106.72
-107.579
-108.388
-109.141
-109.833
-110.457
-111.01
-111.486
-111.883
-112.198
-112.428
-112.571
-112.628
-112.596
-112.478
-112.273
-111.982
-111.608
-111.154
-110.62
-110.013
-109.334
-108.588
-107.78
-106.914
-105.996
-105.031
-104.025
-102.982
-101.908
-100.808
-99.688
-98.554
-97.409
-96.26
-95.112
-93.969
-92.835
-91.713
-90.61
-89.531
-88.481
-87.463
-86.481
-85.533
-84.628
-83.774
-82.962
-82.188
-81.446
-80.727
-80.046
-79.422
-78.843
-78.293
-77.813
-77.431
-77.173
-77.075
-77.106
-77.209
-77.415
-77.786
-78.164
-78.364
-78.496
-78.548
-78.485
-78.703
-78.129
-75.717
-72.955
-70.294
-70.468
-76.752
-85.516
-94.341
-99.622
-96.414
-89.084
-81.334
-75.699
-76.371
-80.341
-84.562
-88.351
-89.847
-90.12
-90.548
-90.861
-91.229
-91.553
-91.547
-91.388
-91.218
-90.982
-90.665
-90.28
-89.819
-89.269
-88.621
-87.846
-86.912
-85.829
-84.611
-83.254
-81.758
-80.126
-78.36
-76.468
-74.461
-72.345
-70.129
-67.825
-65.448
-63.014
-60.54
-58.046
-55.551
-53.074
-50.636
-48.256
-45.953
-43.745
-41.651
-39.689
-37.883
-36.252
-34.818
-33.601
-32.618
-31.885
-31.42
-31.236
-31.336
-31.727
-32.414
-33.408
-34.729
-36.393
-38.402
-40.756
-43.45
-46.463
-49.769
-53.325
-57.067
-60.931
-64.858
-68.793
-72.704
-76.548
-80.274
-83.818
-87.103
-90.058
-92.642
-94.826
-96.57
-97.877
-98.789
-99.384
-99.809
-100.194
-100.614
-101.146
-101.867
-102.859
-104.24
-106.123
-108.571
-111.681
-115.583
-120.27
-125.642
-131.405
-136.959
-141.69
-145.068
-146.49
-145.352
-141.413
-134.732
-125.823
-115.919
-106.166
-97.296
-90.078
-85.106
-82.272
-80.814
-79.104
-74.205
-63.12
-43.413
-12.528
31.612
90.043
162.809
248.458
343.559
443.651
543.803
638.168
720.85
786.324
829.492
846.315
835.691
799.674
741.28
665.1
572.267
460.048
331.409
193.668
62.449
-39.181
-99.377
-117.531
-103.599
-78.24
-54.91
-38.574
-29.847
-23.448
-16.96
-11.651
-8.804
-10.279
-16.027
-24.138
-32.349
-38.467
-41.487
-41.366
-38.573
-33.962
-28.298
-22.249
-16.595
-12.021
-8.893
-7.33
-7.205
-8.241
-10.196
-12.864
-16.042
-19.539
-23.179
-26.808
-30.252
-33.346
-35.965
-38.014
-39.435
-40.201
-40.296
-39.719
-38.52
-36.765
-34.516
-31.836
-28.766
-25.338
-21.606
-17.638
-13.508
-9.301
-5.072
-0.855
3.322
7.447
11.514
15.529
19.515
23.509
27.539
31.626
35.785
40.028
44.371
48.837
53.443
58.207
63.144
68.263
73.572
79.08
84.787
90.691
96.785
103.058
109.498
116.096
122.84
129.717
136.712
143.808
150.985
158.224
165.501
172.792
180.066
187.295
194.446
201.487
208.383
215.1
221.602
227.852
233.817
239.46
244.747
249.643
254.117
258.138
261.676
264.703
267.196
269.13
270.487
271.249
271.403
270.938
269.848
268.126
265.773
262.791
259.186
254.966
250.143
244.732
238.752
232.224
225.173
217.628
209.618
201.176
192.339
183.146
173.636
163.843
153.807
143.568
133.167
122.651
112.061
101.427
90.795
80.227
69.777
59.501
49.434
39.578
29.962
20.648
11.637
2.882
-5.649
-14.001
-22.158
-30.011
-37.525
-44.791
-51.688
-57.853
-63.224
-67.901
-71.839
-75.451
-77.954
-77.134
-73.62
-69.409
-68.001
-75.77
-91.975
-110.346
-124.507
-125.418
-113.025
-95.814
-80.312
-73.722
-76.917
-83.558
-89.889
-93.202
-92.862
-91.496
-90.206
-88.942
-87.796
-86.379
-84.629
-82.905
-81.312
-79.8
-78.386
-77.091
-75.905
-74.817
-73.796
-72.781
-71.759
-70.756
-69.779
-68.824
-67.891
-66.975
-66.075
-65.197
-64.34
-63.497
-62.664
-61.838
-61.016
-60.196
-59.377
-58.556
-57.733
-56.906
-56.073
-55.236
-54.392
-53.542
-52.687
-51.828
-50.965
-50.102
-49.241
-48.384
-47.536
-46.7
-45.881
-45.083
-44.31
-43.565
-42.854
-42.179
-41.544
-40.952
-40.407
-39.912
-39.469
-39.081
-38.749
-38.475
-38.259
-38.103
-38.007
-37.97
-37.991
-38.071
-38.209
-38.402
-38.65
-38.951
-39.304
-39.704
-40.15
-40.638
-41.165
-41.727
-42.32
-42.938
-43.579
-44.238
-44.91
-45.591
-46.278
-46.966
-47.653
-48.335
-49.009
-49.673
-50.325
-50.965
-51.59
-52.201
-52.798
-53.381
-53.95
-54.506
-55.051
-55.585
-56.109
-56.624
-57.131
-57.632
-58.128
-58.621
-59.112
-59.602
-60.093
-60.586
-61.082
-61.583
-62.089
-62.601
-63.118
-63.643
-64.174
-64.711
-65.254
-65.8
-66.348
-66.893
-67.433
-67.961
-68.472
-68.96
-69.418
-69.838
-70.215
-70.541
-70.807
-71.008
-71.134
-71.179
-71.135
-70.996
-70.753
-70.399
-69.929
-69.338
-68.621
-67.775
-66.796
-65.681
-64.43
-63.042
-61.518
-59.858
-58.062
-56.132
-54.074
-51.896
-49.605
-47.214
-44.736
-42.184
-39.58
-36.948
-34.291
-31.622
-28.952
-26.293
-23.672
-21.119
-18.646
-16.277
-14.09
-12.153
-10.512
-9.199
-8.2
-7.483
-7.049
-6.878
-6.752
-6.436
-6.061
-5.702
-5.372
-5.48
-5.11
-3.602
-2.632
-2.513
-6.098
-16.493
-30.468
-47.243
-62.258
-68.228
-66.54
-55.341
-36.966
-19.971
-6.486
-3.009
-14.009
-36.196
-67.054
-97.739
-116.913
-119.471
-104.463
-78.292
-53.052
-37.208
-33.881
-40.778
-50.924
-59.344
-64.734
-67.769
-70.663
-74.427
-78.478
-82.214
-85.161
-87.057
-87.661
-86.666
-84.075
-80.517
-77.264
-75.555
-75.982
-78.808
-84.442
-92.919
-103.338
-113.793
-121.006
-121.226
-111.795
-90.67
-55.62
-5.227
60.634
140.899
232.23
329.873
429.863
528.069
619.239
698.427
761.217
803.78
824.568
823.542
800.235
755.313
691.684
613.216
524.697
431.498
337.897
247.779
165.96
96.456
41.152
0.499
-26.519
-41.982
-47.8
-46.251
-40.856
-35.121
-31.354
-30.885
-33.939
-39.936
-48.3
-58.175
-68.038
-76.356
-82.026
-84.247
-83.132
-79.485
-73.911
-67.443
-60.174
-50.574
-39.595
-29.625
-24.14
-29.557
-45.414
-64.892
-81.186
-84.713
-74.562
-59.527
-46.383
-42.399
-48.833
-58.847
-68.191
-74.022
-75.389
-74.971
-74.025
-72.467
-70.452
-67.649
-64.008
-59.945
-55.615
-50.988
-46.127
-41.115
-36.011
-30.878
-25.74
-20.571
-15.378
-10.201
-5.049
0.094
5.249
10.457
15.739
21.107
26.577
32.156
37.85
43.68
49.666
55.829
62.196
68.781
75.573
82.588
89.836
97.257
104.79
112.369
119.905
127.37
134.794
142.126
149.299
156.49
163.882
171.355
178.929
186.627
193.985
202.029
211.772
221.675
231.333
238.091
238.669
236.719
234.864
236.91
247.675
262.686
278.142
290.955
297.878
302.9
307.511
311.876
315.04
312.558
306.606
299.787
295.426
298.45
304.632
309.99
311.818
306.001
295.681
284.059
271.951
261.347
251.27
240.431
229.206
217.478
205.414
193.391
181.347
169.285
157.388
145.768
134.465
123.494
112.842
102.454
92.305
82.389
72.668
63.127
53.776
44.63
35.706
27.028
18.592
10.372
2.349
-5.492
-13.148
-20.598
-27.807
-34.725
-41.307
-47.515
-53.318
-58.701
-63.66
-68.197
-72.326
-76.068
-79.437
-82.444
-85.095
-87.398
-89.362
-91.006
-92.347
-93.41
-94.219
-94.798
-95.173
-95.366
-95.396
-95.281
-95.034
-94.668
-94.193
-93.624
-92.972
-92.254
-91.483
-90.674
-89.839
-88.993
-88.146
-87.31
-86.492
-85.701
-84.941
-84.22
-83.542
-82.91
-82.328
-81.8
-81.327
-80.911
-80.552
-80.252
-80.01
-79.824
-79.694
-79.617
-79.591
-79.616
-79.687
-79.803
-79.96
-80.156
-80.389
-80.657
-80.955
-81.278
-81.621
-81.98
-82.351
-82.736
-83.125
-83.51
-83.899
-84.298
-84.711
-85.147
-85.594
-86.032
-86.473
-86.933
-87.372
-87.759
-88.073
-88.276
-88.397
-88.495
-88.538
-88.466
-88.434
-88.625
-88.929
-89.357
-89.944
-90.298
-91.479
-94.519
-97.947
-101.315
-101.917
-96.512
-88.689
-80.837
-76.517
-80.617
-88.813
-97.437
-103.976
-104.278
-101.31
-98.08
-95.256
-94.669
-95.255
-95.64
-96.086
-96.414
-96.714
-97.26
-97.87
-98.396
-98.884
-99.342
-99.751
-100.113
-100.435
-100.722
-100.998
-101.293
-101.591
-101.88
-102.164
-102.44
-102.709
-102.974
-103.23
-103.473
-103.705
-103.928
-104.141
-104.345
-104.539
-104.724
-104.899
-105.066
-105.224
-105.374
-105.516
-105.651
-105.777
-105.894
-106.001
-106.096
-106.177
-106.243
-106.291
-106.319
-106.324
-106.305
-106.258
-106.178
-106.064
-105.91
-105.712
-105.465
-105.164
-104.804
-104.381
-103.891
-103.328
-102.69
-101.972
-101.172
-100.286
-99.311
-98.246
-97.086
-95.831
-94.48
-93.033
-91.49
-89.853
-88.127
-86.317
-84.433
-82.483
-80.479
-78.433
-76.359
-74.269
-72.179
-70.101
-68.046
-66.028
-64.06
-62.158
-60.341
-58.626
-57.03
-55.57
-54.262
-53.119
-52.156
-51.381
-50.797
-50.409
-50.226
-50.265
-50.556
-51.121
-51.977
-53.135
-54.597
-56.356
-58.4
-60.701
-63.207
-65.866
-68.627
-71.448
-74.3
-77.145
-79.929
-82.582
-85.014
-87.146
-88.918
-90.29
-91.24
-91.766
-91.894
-91.69
-91.252
-90.703
-90.174
-89.79
-89.684
-89.998
-90.868
-92.497
-95.148
-98.976
-103.958
-109.861
-116.208
-122.478
-128.252
-133.009
-136.049
-136.952
-135.836
-133.405
-131.017
-130.083
-131.41
-135.549
-143.136
-154.06
-167.015
-179.63
-188.178
-188.543
-177.769
-153.424
-112.934
-55.008
19.911
109.913
210.682
316.683
423.329
525.809
618.255
695.577
753.619
789.174
801.655
791.818
759.844
707.032
636.588
552.323
458.943
361.565
263.894
169.484
82.825
7.684
-53.452
-99.375
-130.72
-149.143
-156.066
-153.627
-145.039
-133.634
-122.634
-114.19
-108.9
-106.702
-107.441
-110.542
-115.024
-119.628
-122.843
-123.876
-122.845
-120.177
-116.451
-112.229
-107.958
-104.196
-101.596
-100.477
-100.878
-102.674
-105.551
-109.251
-113.571
-118.23
-123.014
-127.774
-132.124
-135.684
-138.468
-140.389
-141.362
-141.758
-140.507
-136.592
-131.529
-125.835
-122.264
-124.095
-127.844
-131.205
-130.735
-121.682
-108.402
-94.599
-82.808
-77.162
-74.759
-72.646
-70.174
-65.535
-59.761
-54.176
-48.5
-42.889
-37.241
-31.277
-25.163
-19.025
-12.803
-6.474
-0.045
6.491
13.15
19.941
26.887
34.016
41.308
48.737
56.297
63.978
71.768
79.657
87.625
95.652
103.721
111.814
119.909
127.98
136.002
143.943
151.776
159.469
166.99
174.306
181.385
188.193
194.697
200.865
206.663
212.061
217.026
221.532
225.55
229.055
232.023
234.433
236.267
237.509
238.147
238.171
237.574
236.354
234.51
232.047
228.971
225.293
221.026
216.187
210.796
204.875
198.45
191.551
184.209
176.456
168.33
159.866
151.105
142.087
132.853
123.446
113.908
104.28
94.607
84.928
75.286
65.72
56.269
46.969
37.855
28.962
20.32
11.959
3.903
-3.825
-11.208
-18.227
-24.868
-31.116
-36.967
-42.42
-47.463
-52.086
-56.286
-60.058
-63.418
-66.396
-68.989
-71.197
-73.074
-74.666
-76.016
-77.179
-78.15
-78.894
-79.466
-79.949
-80.214
-80.107
-79.76
-79.186
-78.374
-77.733
-76.244
-72.916
-69.214
-65.593
-64.727
-69.81
-77.336
-84.973
-89.238
-85.342
-77.538
-69.428
-63.482
-63.776
-67.399
-71.4
-75.123
-76.765
-77.367
-78.269
-79.209
-80.353
-81.603
-82.68
-83.756
-84.965
-86.25
-87.594
-89.005
-90.47
-91.971
-93.492
-95.002
-96.46
-97.873
-99.246
-100.568
-101.835
-103.043
-104.184
-105.26
-106.27
-107.212
-108.081
-108.876
-109.598
-110.247
-110.824
-111.33
-111.769
-112.143
-112.456
-112.71
-112.911
-113.063
-113.169
-113.235
-113.266
-113.267
-113.243
-113.2
-113.143
-113.077
-113.008
-112.94
-112.88
-112.831
-112.797
-112.782
-112.789
-112.821
-112.882
-112.972
-113.095
-113.253
-113.448
-113.68
-113.952
-114.264
-114.617
-115.011
-115.447
-115.925
-116.443
-117.002
-117.6
-118.237
-118.912
-119.624
-120.371
-121.152
-121.965
-122.808
-123.679
-124.575
-125.494
-126.433
-127.39
-128.362
-129.348
-130.343
-131.347
-132.357
-133.37
-134.385
-135.398
-136.408
-137.412
-138.406
-139.388
-140.354
-141.302
-142.228
-143.13
-144.003
-144.844
-145.651
-146.419
-147.145
-147.824
-148.454
-149.028
-149.544
-149.997
-150.382
-150.695
-150.93
-151.084
-151.153
-151.131
-151.016
-150.802
-150.485
-150.06
-149.523
-148.869
-148.095
-147.196
-146.168
-145.01
-143.719
-142.294
-140.733
-139.035
-137.201
-135.232
-133.129
-130.894
-128.531
-126.042
-123.433
-120.709
-117.879
-114.95
-111.933
-108.838
-105.68
-102.475
-99.238
-95.985
-92.735
-89.504
-86.311
-83.174
-80.107
-77.128
-74.251
-71.496
-68.882
-66.429
-64.156
-62.078
-60.211
-58.57
-57.169
-56.018
-55.115
-54.465
-54.069
-53.939
-54.097
-54.558
-55.323
-56.392
-57.759
-59.404
-61.308
-63.431
-65.711
-68.092
-70.519
-72.945
-75.345
-77.684
-79.91
-81.956
-83.736
-85.174
-86.234
-86.882
-87.083
-86.844
-86.193
-85.203
-84.004
-82.698
-81.366
-80.096
-78.967
-78.078
-77.557
-77.515
-78.109
-79.549
-81.9
-85.069
-88.81
-92.639
-96.04
-98.577
-99.665
-98.562
-94.881
-88.775
-80.919
-72.561
-64.88
-58.514
-54.098
-52.507
-54.008
-57.705
-61.457
-62.013
-56.204
-41.569
-15.519
24.7
81.288
153.676
237.836
330.27
428.091
530.354
638.151
744.29
836.346
902.865
931.668
921.697
881.351
817.345
740.053
656.848
567.817
474.546
375.087
266.524
153.789
46.132
-43.111
-100.88
-123.494
-117.295
-95.657
-72.299
-55.509
-46.864
-42.676
-39.528
-36.297
-33.492
-33.129
-35.645
-39.532
-43.037
-44.261
-42.407
-37.93
-31.452
-23.689
-15.403
-7.22
0.177
6.098
10.241
12.621
13.387
12.847
11.279
8.88
5.897
2.555
-0.947
-4.388
-7.57
-10.328
-12.519
-14.054
-14.876
-14.94
-14.234
-12.789
-10.653
-7.909
-4.631
-0.874
3.308
7.867
12.742
17.856
23.132
28.498
33.903
39.32
44.73
50.124
55.503
60.884
66.296
71.774
77.347
83.033
88.848
94.804
100.918
107.206
113.682
120.359
127.242
134.338
141.646
149.164
156.887
164.805
172.902
181.162
189.568
198.103
206.748
215.484
224.29
233.141
242.013
250.879
259.71
268.474
277.139
285.67
294.033
302.193
310.115
317.762
325.098
332.09
338.7
344.897
350.646
355.915
360.677
364.901
368.564
371.641
374.111
375.957
377.162
377.715
377.606
376.827
375.376
373.253
370.46
367.004
362.895
358.147
352.775
346.799
340.241
333.126
325.484
317.343
308.737
299.701
290.272
280.487
270.387
260.012
249.405
238.607
227.661
216.611
205.497
194.363
183.249
172.195
161.24
150.422
139.776
129.338
119.139
109.209
99.578
90.27
81.309
72.716
64.508
56.701
49.308
42.339
35.801
29.699
24.036
18.812
14.025
9.67
5.742
2.23
-0.876
-3.587
-5.919
-7.887
-9.507
-10.797
-11.777
-12.464
-12.879
-13.043
-12.976
-12.698
-12.231
-11.595
-10.812
-9.899
-8.878
-7.767
-6.584
-5.344
-4.066
-2.762
-1.447
-0.135
1.164
2.438
3.678
4.875
6.021
7.11
8.136
9.096
9.985
10.801
11.543
12.211
12.802
13.319
13.762
14.132
14.432
14.663
14.828
14.931
14.975
14.962
14.898
14.785
14.626
14.426
14.186
13.911
13.602
13.262
12.894
12.5
12.081
11.64
11.179
10.699
10.202
9.688
9.159
8.616
8.058
7.487
6.902
6.305
5.694
5.071
4.436
3.788
3.128
2.454
1.768
1.068
0.354
-0.375
-1.118
-1.877
-2.652
-3.442
-4.248
-5.07
-5.907
-6.761
-7.629
-8.513
-9.411
-10.324
-11.253
-12.196
-13.153
-14.125
-15.111
-16.112
-17.128
-18.157
-19.2
-20.256
-21.325
-22.407
-23.5
-24.604
-25.716
-26.836
-27.963
-29.093
-30.226
-31.358
-32.485
-33.606
-34.717
-35.813
-36.89
-37.945
-38.971
-39.965
-40.922
-41.838
-42.706
-43.523
-44.282
-44.978
-45.606
-46.16
-46.635
-47.024
-47.323
-47.526
-47.63
-47.631
-47.525
-47.309
-46.981
-46.541
-45.987
-45.321
-44.542
-43.654
-42.658
-41.56
-40.365
-39.08
-37.713
-36.276
-34.78
-33.242
-31.677
-30.099
-28.526
-26.974
-25.458
-23.994
-22.594
-21.273
-20.044
-18.924
-17.933
-17.088
-16.405
-15.899
-15.583
-15.469
-15.572
-15.896
-16.437
-17.198
-18.186
-19.414
-20.907
-22.68
-24.734
-27.066
-29.668
-32.519
-35.597
-38.858
-42.237
-45.675
-49.117
-52.522
-55.869
-59.112
-62.187
-65.017
-67.51
-69.603
-71.267
-72.479
-73.218
-73.499
-73.361
-72.883
-72.194
-71.412
-70.626
-69.905
-69.327
-69.016
-69.109
-69.828
-71.418
-73.893
-77.161
-81.062
-85.213
-89.223
-92.777
-95.222
-95.799
-94.48
-91.467
-87.119
-82.71
-79.309
-77.137
-77.16
-79.164
-80.122
-79.245
-76.472
-72.01
-70.403
-69.678
-60.528
-33.754
21.613
105.839
206.607
311.852
409.646
495.274
571.646
638.251
693.728
735.317
758.066
760.274
741.451
701.117
642.635
572.016
492.828
408.014
318.43
221.25
121.957
31.923
-40.579
-86.777
-107.683
-115.182
-114.121
-105.76
-89.051
-56.523
-13.816
21.283
31.834
0.575
-71.126
-161.271
-242.058
-282.846
-269.427
-208.934
-121.608
-37.831
18.489
37.484
22.325
-11.372
-45.751
-69.188
-78.178
-77.353
-74.811
-75.353
-79.585
-85.451
-89.976
-92.425
-93.887
-95.159
-96.648
-98.216
-99.483
-100.58
-101.735
-102.793
-103.375
-103.188
-102.161
-100.416
-98.139
-95.373
-92.075
-88.291
-84.147
-79.788
-75.337
-70.833
-66.25
-61.564
-56.775
-51.884
-46.892
-41.784
-36.52
-31.072
-25.422
-19.559
-13.481
-7.179
-0.645
6.132
13.157
20.429
27.939
35.676
43.626
51.777
60.115
68.622
77.275
86.046
94.909
103.838
112.806
121.786
130.744
139.649
148.468
157.167
165.71
174.06
182.177
190.024
197.559
204.742
211.536
217.902
223.803
229.205
234.074
238.378
242.088
245.178
247.624
249.404
250.499
250.893
250.574
249.533
247.766
245.269
242.047
238.105
233.452
228.102
222.072
215.381
208.053
200.114
191.592
182.521
172.934
162.87
152.369
141.472
130.222
118.666
106.848
94.816
82.617
70.296
57.902
45.479
33.074
20.732
8.495
-3.594
-15.494
-27.168
-38.578
-49.691
-60.477
-70.906
-80.954
-90.599
-99.822
-108.606
-116.939
-124.81
-132.212
-139.139
-145.591
-151.567
-157.072
-162.111
-166.693
-170.829
-174.531
-177.814
-180.693
-183.185
-185.309
-187.083
-188.529
-189.665
-190.515
-191.1
-191.442
-191.565
-191.489
-191.239
-190.834
-190.297
-189.646
-188.9
-188.078
-187.194
-186.264
-185.302
-184.321
-183.331
-182.343
-181.365
-180.405
-179.468
-178.56
-177.683
-176.841
-176.034
-175.264
-174.53
-173.833
-173.171
-172.544
-171.951
-171.389
-170.856
-170.351
-169.87
-169.409
-168.965
-168.534
-168.113
-167.698
-167.286
-166.875
-166.461
-166.043
-165.619
-165.188
-164.748
-164.3
-163.843
-163.378
-162.905
-162.425
-161.942
-161.456
-160.972
-160.492
-160.019
-159.556
-159.106
-158.671
-158.254
-157.857
-157.48
-157.126
-156.795
-156.49
-156.21
-155.959
-155.736
-155.542
-155.379
-155.248
-155.148
-155.08
-155.044
-155.04
-155.068
-155.128
-155.219
-155.342
-155.495
-155.679
-155.892
-156.133
-156.401
-156.694
-157.01
-157.347
-157.702
-158.076
-158.465
-158.869
-159.287
-159.719
-160.165
-160.624
-161.097
-161.582
-162.081
-162.593
-163.117
-163.653
-164.201
-164.76
-165.328
-165.906
-166.491
-167.083
-167.679
-168.277
-168.873
-169.463
-170.043
-170.609
-171.155
-171.675
-172.165
-172.614
-173.02
-173.381
-173.692
-173.949
-174.147
-174.273
-174.322
-174.299
-174.191
-173.971
-173.616
-173.104
-172.429
-171.618
-170.669
-169.546
-168.273
-166.918
-165.534
-164.184
-162.873
-161.507
-160.068
-158.659
-157.177
-155.275
-152.899
-150.165
-147.039
-143.936
-140.116
-133.392
-124.344
-114.98
-108.732
-111.913
-123.925
-138.522
-149.407
-147.636
-132.974
-113.85
-96.761
-88.815
-91.02
-97.083
-103.22
-106.752
-106.983
-106.504
-106.448
-106.77
-107.57
-108.459
-109.357
-110.607
-112.299
-114.357
-116.757
-119.451
-122.365
-125.423
-128.547
-131.646
-134.649
-137.513
-140.156
-142.477
-144.403
-145.897
-146.934
-147.489
-147.561
-147.16
-146.334
-145.222
-143.963
-142.684
-141.51
-140.534
-139.85
-139.64
-140.16
-141.58
-143.892
-146.875
-150.159
-153.413
-156.375
-158.691
-159.773
-159.095
-156.553
-152.656
-148.309
-144.427
-141.862
-141.122
-142.665
-147.056
-152.752
-157.201
-159.213
-155.933
-147.337
-134.552
-111.256
-72.851
-14.458
69.107
169.929
277.89
386.003
486.555
580.14
670.646
752.975
817.545
853.723
849.365
803.774
728.879
636.854
539.289
443.316
346.193
246.669
151.268
66.242
0.433
-39.513
-58.885
-63.485
-59.422
-54.248
-48.663
-43.623
-40.977
-40.105
-42.367
-48.403
-56.806
-66.603
-75.996
-82.854
-86.427
-86.525
-83.281
-77.456
-69.861
-61.253
-52.564
-44.676
-38.053
-32.904
-29.261
-26.957
-25.85
-25.802
-26.608
-28.068
-30.003
-32.271
-34.736
-37.242
-39.604
-41.635
-43.177
-44.094
-44.357
-44.011
-43.1
-41.697
-39.843
-37.512
-34.742
-31.683
-28.277
-24.204
-19.453
-14.199
-8.472
-2.75
3.653
12.92
24.493
36.351
45.086
44.38
34.801
22.699
14.449
19.076
36.952
59.617
80.557
92.669
94.899
93.609
92.652
94.721
100.559
107.576
114.632
121.797
128.977
136.551
144.59
152.729
160.852
168.999
177.14
185.236
193.276
201.249
209.16
217.037
224.864
232.579
240.136
247.502
254.639
261.51
268.076
274.291
280.116
285.518
290.463
294.92
298.856
302.241
305.047
307.25
308.827
309.759
310.03
309.628
308.543
306.769
304.304
301.15
297.312
292.799
287.623
281.799
275.347
268.288
260.648
252.455
243.741
234.54
224.89
214.829
204.399
193.642
182.601
171.322
159.85
148.229
136.504
124.721
112.924
101.157
89.461
77.877
66.446
55.205
44.188
33.43
22.96
12.807
2.996
-6.45
-15.512
-24.173
-32.417
-40.234
-47.613
-54.55
-61.04
-67.083
-72.679
-77.834
-82.554
-86.848
-90.725
-94.198
-97.282
-99.992
-102.344
-104.356
-106.045
-107.432
-108.536
-109.377
-109.976
-110.353
-110.527
-110.519
-110.347
-110.032
-109.589
-109.036
-108.39
-107.666
-106.877
-106.039
-105.162
-104.259
-103.34
-102.416
-101.494
-100.582
-99.687
-98.813
-97.967
-97.151
-96.369
-95.623
-94.915
-94.246
-93.618
-93.029
-92.48
-91.969
-91.497
-91.061
-90.659
-90.291
-89.954
-89.647
-89.368
-89.116
-88.89
-88.688
-88.509
-88.352
-88.216
-88.099
-88.002
-87.922
-87.859
-87.813
-87.781
-87.764
-87.761
-87.771
-87.792
-87.826
-87.869
-87.921
-87.981
-88.047
-88.118
-88.193
-88.27
-88.348
-88.426
-88.503
-88.576
-88.646
-88.709
-88.766
-88.813
-88.851
-88.877
-88.891
-88.89
-88.875
-88.845
-88.8
-88.739
-88.662
-88.571
-88.464
-88.343
-88.21
-88.065
-87.91
-87.748
-87.58
-87.411
-87.243
-87.08
-86.926
-86.785
-86.66
-86.557
-86.478
-86.428
-86.412
-86.434
-86.497
-86.606
-86.764
-86.975
-87.241
-87.566
-87.951
-88.398
-88.907
-89.479
-90.114
-90.81
-91.568
-92.384
-93.257
-94.185
-95.163
-96.187
-97.253
-98.354
-99.484
-100.636
-101.801
-102.971
-104.137
-105.29
-106.42
-107.517
-108.571
-109.571
-110.506
-111.366
-112.141
-112.82
-113.393
-113.85
-114.184
-114.385
-114.448
-114.366
-114.133
-113.745
-113.198
-112.488
-111.615
-110.577
-109.374
-108.007
-106.478
-104.793
-102.956
-100.975
-98.857
-96.617
-94.267
-91.821
-89.296
-86.71
-84.08
-81.425
-78.764
-76.112
-73.488
-70.908
-68.389
-65.952
-63.617
-61.404
-59.332
-57.42
-55.682
-54.137
-52.796
-51.663
-50.745
-50.048
-49.583
-49.373
-49.435
-49.779
-50.411
-51.332
-52.529
-53.981
-55.649
-57.473
-59.398
-61.365
-63.327
-65.253
-67.105
-68.837
-70.391
-71.69
-72.669
-73.286
-73.509
-73.305
-72.676
-71.673
-70.389
-68.98
-67.586
-66.292
-65.177
-64.335
-63.867
-63.906
-64.607
-66.047
-68.34
-71.657
-75.982
-81.18
-86.923
-92.499
-97.196
-100.479
-101.676
-100.175
-95.968
-89.298
-80.912
-72.415
-64.991
-59.311
-56.255
-56.175
-58.228
-61.006
-62.014
-57.456
-44.402
-20.46
17.114
69.857
137.7
219.373
311.63
409.628
508.934
604.44
689.848
759.872
810.318
837.971
841.5
820.803
775.887
710.111
630.415
541.419
446.908
348.805
245.073
141.448
49.401
-21.932
-62.503
-72.82
-64.352
-46.664
-30.142
-20.149
-14.113
-10.616
-8.307
-6.648
-7.668
-11.886
-18.316
-25.31
-30.606
-33.015
-32.477
-29.411
-24.544
-18.52
-11.93
-5.512
-0.006
4.146
6.81
8.084
8.211
7.42
5.907
3.878
1.558
-0.861
-3.213
-5.32
-7.017
-8.181
-8.711
-8.546
-7.66
-6.036
-3.677
-0.632
3.031
7.24
11.926
17.036
22.525
28.329
34.375
40.579
46.853
53.137
59.393
65.591
71.713
77.752
83.709
89.605
95.473
101.339
107.222
113.137
119.094
125.11
131.206
137.4
143.709
150.147
156.722
163.445
170.322
177.356
184.544
191.882
199.359
206.967
214.697
222.539
230.481
238.511
246.612
254.765
262.954
271.155
279.344
287.494
295.574
303.555
311.404
319.087
326.569
333.814
340.787
347.451
353.77
359.711
365.237
370.317
374.918
379.012
382.569
385.565
387.975
389.779
390.96
391.501
391.392
390.624
389.192
387.094
384.331
380.909
376.835
372.12
366.779
360.827
354.286
347.179
339.532
331.373
322.735
313.651
304.157
294.29
284.09
273.596
262.849
251.89
240.761
229.502
218.156
206.763
195.361
183.991
172.69
161.494
150.436
139.55
128.865
118.409
108.208
98.284
88.66
79.352
70.378
61.751
53.484
45.586
38.065
30.926
24.172
17.803
11.818
6.215
0.987
-3.872
-8.371
-12.518
-16.325
-19.804
-22.968
-25.83
-28.405
-30.707
-32.753
-34.557
-36.135
-37.504
-38.678
-39.672
-40.5
-41.176
-41.714
-42.123
-42.415
-42.603
-42.698
-42.712
-42.656
-42.537
-42.357
-42.128
-41.861
-41.553
-41.204
-40.808
-40.353
-39.862
-39.368
-38.864
-38.348
-37.85
-37.382
-36.982
-36.705
-36.482
-36.228
-35.954
-35.683
-35.292
-34.655
-33.852
-32.813
-31.658
-30.956
-29.549
-26.424
-23.079
-19.572
-19.634
-27.496
-38.149
-48.784
-53.208
-43.386
-27.132
-10.436
0.713
-2.606
-13.199
-24.479
-33.314
-33.805
-29.921
-25.975
-22.363
-21.057
-20.92
-20.329
-19.72
-19.064
-18.401
-17.99
-17.669
-17.289
-16.884
-16.457
-15.963
-15.372
-14.705
-13.979
-13.213
-12.438
-11.641
-10.807
-9.947
-9.064
-8.158
-7.234
-6.291
-5.33
-4.357
-3.381
-2.408
-1.445
-0.499
0.421
1.308
2.153
2.948
3.684
4.352
4.945
5.452
5.867
6.181
6.386
6.474
6.437
6.269
5.964
5.515
4.918
4.168
3.263
2.199
0.976
-0.407
-1.948
-3.647
-5.5
-7.502
-9.649
-11.933
-14.346
-16.879
-19.521
-22.262
-25.088
-27.987
-30.944
-33.948
-36.985
-40.04
-43.098
-46.146
-49.171
-52.159
-55.098
-57.975
-60.779
-63.499
-66.125
-68.648
-71.061
-73.358
-75.535
-77.592
-79.528
-81.345
-83.048
-84.641
-86.13
-87.525
-88.832
-90.059
-91.215
-92.311
-93.359
-94.376
-95.378
-96.383
-97.406
-98.464
-99.572
-100.749
-102.008
-103.356
-104.799
-106.345
-108.012
-109.824
-111.804
-113.959
-116.296
-118.814
-121.506
-124.364
-127.362
-130.454
-133.598
-136.747
-139.867
-142.942
-145.946
-148.838
-151.557
-154.02
-156.163
-157.955
-159.374
-160.399
-161.029
-161.277
-161.205
-160.933
-160.553
-160.146
-159.783
-159.516
-159.436
-159.665
-160.324
-161.566
-163.582
-166.424
-169.995
-174.09
-178.321
-182.251
-185.495
-187.559
-187.769
-185.736
-181.591
-175.848
-169.492
-163.573
-158.613
-154.965
-153.335
-154.231
-157.038
-160.185
-161.376
-156.535
-142.507
-118.454
-81.55
-32.979
22.963
87.986
160.828
244.551
348.634
468.234
593.775
708.935
787.259
818.477
802.787
747.784
673.098
590.417
504.613
418.042
326.86
230.742
134.092
42.741
-36.087
-98.128
-142.609
-170.453
-183.686
-183.446
-171.362
-151.05
-126.493
-101.722
-80.129
-63.103
-51.351
-46.159
-47.87
-55.432
-67.183
-80.463
-92.664
-102.724
-110.031
-113.736
-113.576
-109.76
-102.871
-94.382
-85.93
-78.317
-72.028
-67.471
-64.709
-63.764
-64.551
-66.566
-69.157
-71.905
-74.506
-76.737
-78.552
-79.886
-80.66
-80.9
-80.666
-79.998
-78.943
-77.532
-75.76
-73.64
-71.206
-68.487
-65.542
-62.434
-59.222
-55.972
-52.727
-49.511
-46.343
-43.23
-40.172
-37.156
-34.158
-31.144
-28.09
-24.973
-21.772
-18.466
-15.025
-11.423
-7.636
-3.643
0.574
5.026
9.725
14.678
19.887
25.35
31.062
37.011
43.187
49.577
56.167
62.941
69.877
76.952
84.142
91.42
98.755
106.114
113.462
120.761
127.972
135.053
141.965
148.663
155.106
161.251
167.055
172.476
177.474
182.009
186.044
189.545
192.478
194.814
196.525
197.587
197.981
197.689
196.698
194.999
192.584
189.454
185.609
181.057
175.807
169.874
163.276
156.035
148.177
139.731
130.731
121.213
111.216
100.781
89.952
78.776
67.301
55.574
43.646
31.568
19.39
7.161
-5.067
-17.246
-29.328
-41.267
-53.018
-64.539
-75.79
-86.731
-97.327
-107.545
-117.355
-126.728
-135.641
-144.072
-152.003
-159.418
-166.307
-172.661
-178.475
-183.748
-188.479
-192.675
-196.341
-199.488
-202.128
-204.275
-205.948
-207.164
-207.945
-208.312
-208.288
-207.899
-207.168
-206.122
-204.785
-203.184
-201.345
-199.292
-197.053
-194.651
-192.111
-189.457
-186.711
-183.897
-181.035
-178.146
-175.248
-172.36
-169.498
-166.678
-163.912
-161.214
-158.594
-156.062
-153.625
-151.291
-149.063
-146.948
-144.946
-143.061
-141.292
-139.641
-138.107
-136.687
-135.381
-134.185
-133.098
-132.116
-131.236
-130.455
-129.769
-129.174
-128.667
-128.243
-127.898
-127.628
-127.428
-127.294
-127.221
-127.205
-127.241
-127.324
-127.452
-127.619
-127.822
-128.058
-128.324
-128.617
-128.934
-129.272
-129.629
-130.003
-130.392
-130.792
-131.203
-131.621
-132.044
-132.471
-132.898
-133.323
-133.744
-134.157
-134.56
-134.95
-135.323
-135.677
-136.009
-136.315
-136.594
-136.844
-137.061
-137.243
-137.39
-137.499
-137.569
-137.597
-137.582
-137.522
-137.416
-137.262
-137.06
-136.808
-136.505
-136.151
-135.747
-135.291
-134.785
-134.229
-133.623
-132.969
-132.268
-131.522
-130.732
-129.9
-129.03
-128.124
-127.185
-126.216
-125.221
-124.203
-123.165
-122.11
-121.041
-119.961
-118.873
-117.779
-116.683
-115.587
-114.494
-113.407
-112.329
-111.26
-110.205
-109.163
-108.137
-107.127
-106.133
-105.155
-104.192
-103.245
-102.31
-101.387
-100.473
-99.565
-98.66
-97.756
-96.848
-95.932
-95.003
-94.057
-93.088
-92.093
-91.067
-90.004
-88.9
-87.75
-86.551
-85.3
-83.991
-82.62
-81.185
-79.682
-78.11
-76.467
-74.752
-72.965
-71.107
-69.181
-67.188
-65.134
-63.024
-60.865
-58.668
-56.444
-54.205
-51.965
-49.739
-47.541
-45.388
-43.293
-41.268
-39.328
-37.485
-35.755
-34.156
-32.704
-31.414
-30.302
-29.379
-28.657
-28.15
-27.867
-27.807
-27.972
-28.365
-28.999
-29.899
-31.079
-32.543
-34.29
-36.309
-38.586
-41.108
-43.842
-46.735
-49.738
-52.798
-55.879
-58.961
-62.012
-64.98
-67.793
-70.355
-72.594
-74.47
-75.961
-77.054
-77.741
-78.029
-77.972
-77.663
-77.195
-76.655
-76.101
-75.592
-75.231
-75.123
-75.45
-76.46
-78.269
-80.857
-84.011
-87.293
-90.29
-92.661
-93.933
-93.535
-91.098
-86.579
-80.643
-74.585
-69.534
-66.35
-65.596
-67.597
-72.545
-80.038
-88.311
-94.443
-95.308
-87.926
-70.102
-40.067
4.069
63.283
136.83
222.247
315.814
413.296
510.738
603.575
686.243
753.646
801.672
827.782
831.063
811.096
767.946
703.802
622.944
530.388
431.656
331.578
234.28
144.759
68.014
6.869
-38.041
-67.508
-83.493
-87.665
-81.671
-69.034
-54.314
-41.092
-31.43
-26.034
-24.699
-27.631
-35.239
-46.458
-58.913
-70.204
-78.824
-84.323
-86.863
-86.365
-82.377
-75.078
-65.58
-55.362
-45.521
-36.568
-28.617
-21.743
-16.274
-12.393
-9.851
-8.169
-6.929
-5.899
-5.055
-4.433
-3.949
-3.512
-3.107
-2.738
-2.419
-2.098
-1.628
-0.889
0.183
1.613
3.383
5.484
7.92
10.678
13.744
17.114
20.794
24.832
29.275
34.13
39.378
44.959
50.778
56.775
62.913
69.157
75.495
81.92
88.42
95.013
101.718
108.537
115.457
122.442
129.451
136.47
143.501
150.563
157.689
164.898
172.202
179.614
187.137
194.763
202.482
210.26
218.059
225.846
233.596
241.285
248.894
256.394
263.75
270.925
277.878
284.57
290.96
297.003
302.658
307.887
312.655
316.933
320.698
323.921
326.58
328.652
330.115
330.949
331.139
330.669
329.526
327.702
325.194
322
318.126
313.579
308.37
302.513
296.026
288.93
281.25
273.013
264.249
254.99
245.272
235.132
224.612
213.751
202.592
191.18
179.56
167.775
155.872
143.895
131.889
119.899
107.968
96.138
84.451
72.946
61.662
50.635
39.901
29.489
19.43
9.749
0.469
-8.388
-16.806
-24.771
-32.27
-39.297
-45.846
-51.914
-57.501
-62.611
-67.248
-71.421
-75.14
-78.416
-81.265
-83.7
-85.739
-87.401
-88.705
-89.672
-90.324
-90.683
-90.772
-90.615
-90.234
-89.654
-88.897
-87.987
-86.944
-85.791
-84.547
-83.231
-81.862
-80.456
-79.028
-77.593
-76.163
-74.75
-73.362
-72.008
-70.695
-69.429
-68.214
-67.054
-65.95
-64.904
-63.917
-62.988
-62.116
-61.298
-60.532
-59.814
-59.14
-58.506
-57.906
-57.336
-56.79
-56.262
-55.749
-55.243
-54.742
-54.241
-53.735
-53.221
-52.696
-52.158
-51.606
-51.037
-50.452
-49.851
-49.234
-48.603
-47.959
-47.305
-46.642
-45.975
-45.304
-44.635
-43.969
-43.31
-42.663
-42.03
-41.417
-40.826
-40.262
-39.729
-39.232
-38.773
-38.356
-37.985
-37.662
-37.39
-37.172
-37.008
-36.901
-36.851
-36.857
-36.921
-37.041
-37.216
-37.443
-37.722
-38.048
-38.42
-38.834
-39.287
-39.775
-40.296
-40.846
-41.422
-42.02
-42.637
-43.269
-43.912
-44.565
-45.222
-45.88
-46.537
-47.19
-47.836
-48.472
-49.096
-49.708
-50.304
-50.886
-51.451
-51.999
-52.532
-53.05
-53.554
-54.045
-54.525
-54.997
-55.464
-55.927
-56.39
-56.856
-57.327
-57.806
-58.296
-58.798
-59.315
-59.85
-60.403
-60.976
-61.572
-62.191
-62.834
-63.503
-64.199
-64.92
-65.668
-66.44
-67.237
-68.054
-68.89
-69.742
-70.604
-71.473
-72.342
-73.205
-74.058
-74.892
-75.699
-76.473
-77.205
-77.886
-78.509
-79.065
-79.545
-79.942
-80.249
-80.458
-80.563
-80.557
-80.435
-80.19
-79.819
-79.318
-78.682
-77.908
-76.994
-75.94
-74.744
-73.409
-71.937
-70.332
-68.601
-66.753
-64.801
-62.757
-60.634
-58.449
-56.216
-53.954
-51.678
-49.403
-47.145
-44.92
-42.745
-40.641
-38.627
-36.724
-34.95
-33.321
-31.856
-30.571
-29.481
-28.589
-27.903
-27.433
-27.195
-27.217
-27.522
-28.121
-29.021
-30.221
-31.709
-33.47
-35.468
-37.647
-39.948
-42.317
-44.706
-47.088
-49.428
-51.673
-53.758
-55.601
-57.132
-58.319
-59.135
-59.557
-59.602
-59.311
-58.777
-58.151
-57.559
-57.11
-56.915
-57.073
-57.699
-58.937
-60.897
-63.713
-67.559
-72.451
-78.271
-84.778
-91.479
-97.837
-103.401
-107.581
-109.68
-109.375
-106.748
-102.275
-97.012
-91.964
-87.62
-84.459
-83.103
-83.567
-85.022
-85.804
-83.138
-74.048
-56.54
-28.897
11.064
64.91
132.752
213.533
303.357
395.865
487.217
574.24
654.139
727.487
789.002
828.68
838.687
809.912
743.439
652.956
549.963
445.66
345.241
243.482
141.674
47.486
-29.497
-77.072
-91.476
-80.094
-56.06
-32.396
-18.364
-16.764
-22.183
-29.892
-36.936
-40.996
-44.857
-50.06
-55.781
-61.586
-65.285
-65.863
-62.774
-55.546
-46.534
-37.111
-30.579
-30.786
-34.615
-39.863
-42.965
-38.862
-31.652
-24.799
-20.583
-22.935
-28.757
-34.921
-40.652
-43.998
-45.837
-47.396
-48.326
-48.733
-48.509
-47.368
-45.485
-43.049
-40.073
-36.602
-32.725
-28.492
-23.941
-19.138
-14.118
-8.921
-3.632
1.695
7.004
12.236
17.377
22.41
27.325
32.152
36.879
41.482
46.049
50.653
55.347
60.216
65.244
70.382
75.689
81.239
86.908
92.553
98.28
104.074
109.932
116.248
122.024
126.297
130.442
134.835
142.068
155.229
170.823
186.518
198.817
202.938
203.04
202.634
204.133
211.54
221.911
232.273
241.911
248.972
254.484
259.773
264.561
269.004
272.985
276.2
278.819
280.976
282.593
283.638
284.1
283.949
283.179
281.788
279.757
277.07
273.726
269.728
265.079
259.784
253.855
247.307
240.156
232.417
224.123
215.309
206.01
196.269
186.119
175.595
164.74
153.596
142.207
130.621
118.884
107.041
95.138
83.222
71.34
59.537
47.855
36.331
25.003
13.909
3.082
-7.445
-17.644
-27.489
-36.954
-46.019
-54.666
-62.879
-70.645
-77.955
-84.8
-91.175
-97.085
-102.532
-107.524
-112.067
-116.164
-119.828
-123.086
-125.947
-128.407
-130.469
-132.132
-133.415
-134.374
-135.037
-135.391
-135.482
-135.409
-135.251
-135.097
-134.978
-134.819
-134.609
-134.469
-134.321
-133.81
-132.861
-131.606
-130.009
-128.466
-126.307
-121.227
-113.631
-105.693
-100.822
-105.586
-119.867
-137.012
-150.486
-150.995
-137.564
-119.061
-102.365
-94.785
-97.9
-105.097
-112.218
-116.537
-117.089
-116.553
-116.216
-115.964
-115.898
-115.615
-114.991
-114.389
-113.923
-113.528
-113.21
-112.986
-112.839
-112.754
-112.696
-112.604
-112.455
-112.279
-112.086
-111.873
-111.643
-111.393
-111.127
-110.856
-110.583
-110.309
-110.034
-109.76
-109.49
-109.229
-108.98
-108.746
-108.531
-108.336
-108.164
-108.019
-107.901
-107.813
-107.756
-107.731
-107.739
-107.78
-107.854
-107.962
-108.103
-108.277
-108.482
-108.719
-108.986
-109.283
-109.607
-109.957
-110.332
-110.73
-111.15
-111.591
-112.049
-112.525
-113.015
-113.517
-114.031
-114.553
-115.081
-115.613
-116.147
-116.681
-117.213
-117.742
-118.266
-118.785
-119.298
-119.803
-120.301
-120.791
-121.272
-121.744
-122.206
-122.66
-123.104
-123.538
-123.964
-124.38
-124.788
-125.185
-125.573
-125.95
-126.315
-126.666
-127.003
-127.322
-127.621
-127.899
-128.152
-128.379
-128.575
-128.738
-128.866
-128.954
-128.999
-128.996
-128.941
-128.83
-128.659
-128.422
-128.115
-127.734
-127.274
-126.731
-126.102
-125.381
-124.565
-123.651
-122.633
-121.509
-120.277
-118.934
-117.48
-115.914
-114.239
-112.456
-110.569
-108.582
-106.503
-104.34
-102.102
-99.799
-97.443
-95.048
-92.627
-90.192
-87.759
-85.34
-82.948
-80.597
-78.303
-76.08
-73.947
-71.92
-70.016
-68.253
-66.645
-65.208
-63.953
-62.889
-62.022
-61.361
-60.918
-60.716
-60.77
-61.091
-61.685
-62.552
-63.681
-65.054
-66.638
-68.383
-70.242
-72.172
-74.132
-76.1
-78.05
-79.948
-81.747
-83.381
-84.789
-85.928
-86.768
-87.287
-87.486
-87.397
-87.092
-86.699
-86.33
-86.062
-85.958
-86.066
-86.46
-87.241
-88.512
-90.365
-92.908
-96.288
-100.542
-105.571
-111.095
-116.59
-121.465
-125.214
-127.314
-127.17
-124.52
-119.559
-112.88
-105.661
-99.057
-93.687
-90.068
-88.786
-89.787
-92.136
-94.028
-92.538
-84.693
-68.492
-42.015
-3.211
49.126
115.021
192.882
279.194
369.86
461.212
548.853
627.554
692.264
738.435
763.256
765.854
746.011
703.996
641.688
562.692
471.849
374.885
276.721
181.628
94.207
18.668
-41.904
-86.131
-114.584
-129.167
-131.78
-124.747
-111.303
-94.919
-79.06
-66.048
-56.593
-50.678
-48.136
-48.453
-50.738
-53.725
-55.789
-56.052
-54.584
-51.723
-47.993
-43.894
-39.77
-36.169
-33.805
-33.028
-33.856
-36.127
-39.464
-43.568
-48.26
-53.291
-58.397
-63.332
-67.827
-71.722
-74.963
-77.499
-79.303
-80.347
-80.585
-80.027
-78.739
-76.784
-74.233
-71.148
-67.566
-63.547
-59.168
-54.51
-49.665
-44.693
-39.627
-34.495
-29.308
-24.077
-18.809
-13.487
-8.078
-2.561
3.081
8.861
14.778
20.846
27.08
33.487
40.077
46.859
53.841
61.047
68.482
76.137
83.989
92.004
100.146
108.389
116.699
125.029
133.348
141.635
149.892
158.149
166.415
174.679
182.91
191.054
199.079
206.986
214.773
222.447
230.02
237.492
244.894
252.294
259.708
267.103
274.404
281.471
288.192
294.497
300.334
305.671
310.469
314.686
318.261
321.141
323.317
324.755
325.363
325.046
323.722
321.294
317.828
313.509
308.257
301.985
294.929
287.096
278.456
269.637
259.842
247.979
235.56
223.127
213.042
209.714
210.78
212.443
210.767
198.156
175.522
150.1
126.769
113.199
111.447
114.173
117.025
115.713
107.093
95.531
83.814
72.755
64.112
56.55
48.885
41.573
34.425
27.544
21.257
15.406
9.853
4.651
-0.218
-4.829
-9.179
-13.252
-17.051
-20.547
-23.711
-26.573
-29.153
-31.458
-33.506
-35.314
-36.897
-38.283
-39.493
-40.54
-41.436
-42.19
-42.81
-43.31
-43.701
-43.995
-44.204
-44.338
-44.408
-44.429
-44.411
-44.363
-44.295
-44.212
-44.123
-44.033
-43.947
-43.871
-43.807
-43.76
-43.732
-43.728
-43.748
-43.796
-43.872
-43.978
-44.114
-44.282
-44.48
-44.709
-44.967
-45.254
-45.568
-45.908
-46.273
-46.661
-47.069
-47.497
-47.942
-48.402
-48.874
-49.357
-49.846
-50.342
-50.84
-51.34
-51.839
-52.337
-52.832
-53.322
-53.807
-54.286
-54.757
-55.219
-55.671
-56.112
-56.54
-56.954
-57.354
-57.738
-58.106
-58.456
-58.788
-59.102
-59.397
-59.673
-59.929
-60.166
-60.384
-60.583
-60.763
-60.925
-61.071
-61.2
-61.314
-61.414
-61.5
-61.572
-61.631
-61.678
-61.712
-61.736
-61.748
-61.75
-61.744
-61.731
-61.715
-61.698
-61.678
-61.657
-61.635
-61.614
-61.599
-61.596
-61.607
-61.635
-61.684
-61.76
-61.867
-62.01
-62.188
-62.392
-62.621
-62.873
-63.151
-63.463
-63.811
-64.186
-64.583
-64.991
-65.402
-65.815
-66.221
-66.605
-66.957
-67.267
-67.541
-67.802
-68.062
-68.328
-68.591
-68.827
-69.028
-69.206
-69.397
-69.657
-70.01
-70.444
-70.937
-71.461
-72.022
-72.672
-73.353
-73.915
-74.301
-74.519
-74.819
-75.674
-77.229
-79.347
-81.882
-84.571
-87.172
-89.547
-90.855
-89.707
-85.482
-77.991
-67.47
-55.25
-42.464
-29.509
-18.03
-9.385
-2.686
0.925
0.036
-6.17
-22.357
-47.903
-75.143
-96.349
-101.408
-87.794
-64.352
-39.914
-22.83
-15.542
-12.644
-10.688
-7.898
-4.481
-2.934
-3.272
-4.583
-6.461
-8.221
-9.9
-11.713
-13.268
-14.469
-15.685
-17.176
-19.162
-21.673
-24.441
-27.293
-30.227
-33.229
-36.256
-39.258
-42.131
-44.801
-47.24
-49.394
-51.21
-52.652
-53.673
-54.245
-54.367
-54.073
-53.438
-52.57
-51.588
-50.602
-49.71
-49.025
-48.67
-48.775
-49.527
-51.173
-53.817
-57.374
-61.581
-65.96
-70.047
-73.522
-75.927
-76.606
-75.239
-72.038
-67.745
-63.729
-61.208
-60.667
-62.45
-67.027
-74.162
-82.683
-90.393
-93.819
-89.487
-75.15
-48.935
-8.841
46.111
115.664
198.174
289.921
386.479
484.127
578.677
664.8
737.7
793.318
828.124
840.331
829.005
793.078
734.88
660.679
575.744
484.022
385.442
276.158
158.681
43.75
-51.765
-110.953
-128.054
-111.047
-78.189
-47.637
-29.325
-24.254
-25.957
-28.57
-30.631
-32.952
-37.62
-45.079
-53.227
-59.635
-62.924
-62.823
-59.913
-55.091
-49.052
-42.448
-36.151
-30.984
-27.367
-25.415
-25.006
-25.856
-27.763
-30.536
-33.927
-37.689
-41.606
-45.493
-49.166
-52.45
-55.201
-57.307
-58.698
-59.344
-59.227
-58.347
-56.749
-54.499
-51.664
-48.312
-44.495
-40.257
-35.665
-30.796
-25.736
-20.576
-15.38
-10.186
-5.026
0.083
5.135
10.132
15.096
20.062
25.055
30.092
35.189
40.355
45.604
50.959
56.437
62.054
67.824
73.755
79.857
86.134
92.587
99.213
106.004
112.948
120.034
127.251
134.588
142.031
149.564
157.169
164.825
172.511
180.202
187.87
195.485
203.014
210.423
217.677
224.74
231.575
238.145
244.411
250.338
255.887
261.024
265.712
269.917
273.607
276.751
279.322
281.294
282.642
283.347
283.392
282.762
281.448
279.442
276.74
273.343
269.255
264.482
259.036
252.931
246.187
238.824
230.87
222.351
213.302
203.757
193.752
183.329
172.53
161.397
149.976
138.313
126.455
114.449
102.343
90.185
78.022
65.9
53.864
41.958
30.223
18.701
7.43
-3.556
-14.223
-24.54
-34.48
-44.018
-53.131
-61.801
-70.013
-77.753
-85.013
-91.786
-98.068
-103.859
-109.162
-113.981
-118.324
-122.202
-125.626
-128.61
-131.172
-133.329
-135.101
-136.51
-137.577
-138.327
-138.783
-138.969
-138.912
-138.635
-138.165
-137.525
-136.741
-135.836
-134.832
-133.753
-132.619
-131.449
-130.264
-129.079
-127.912
-126.775
-125.683
-124.646
-123.676
-122.781
-121.968
-121.244
-120.615
-120.083
-119.651
-119.321
-119.093
-118.966
-118.938
-119.008
-119.17
-119.422
-119.758
-120.173
-120.661
-121.215
-121.83
-122.497
-123.21
-123.962
-124.745
-125.553
-126.38
-127.218
-128.062
-128.907
-129.747
-130.577
-131.393
-132.192
-132.97
-133.724
-134.451
-135.148
-135.814
-136.448
-137.047
-137.611
-138.14
-138.632
-139.089
-139.51
-139.896
-140.248
-140.566
-140.852
-141.107
-141.333
-141.531
-141.702
-141.85
-141.975
-142.079
-142.163
-142.23
-142.279
-142.312
-142.332
-142.337
-142.329
-142.309
-142.275
-142.23
-142.171
-142.101
-142.017
-141.919
-141.807
-141.681
-141.539
-141.381
-141.207
-141.014
-140.802
-140.57
-140.317
-140.041
-139.741
-139.416
-139.065
-138.687
-138.283
-137.851
-137.393
-136.907
-136.395
-135.858
-135.295
-134.709
-134.098
-133.464
-132.807
-132.131
-131.439
-130.731
-130.006
-129.268
-128.516
-127.756
-126.994
-126.225
-125.447
-124.673
-123.914
-123.179
-122.483
-121.818
-121.166
-120.546
-119.979
-119.427
-118.863
-118.264
-117.593
-116.879
-116.182
-115.464
-114.661
-113.927
-113.442
-113.096
-112.897
-112.879
-112.639
-113.249
-115.749
-118.645
-121.48
-121.508
-115.438
-106.888
-98.266
-93.164
-96.521
-103.956
-111.754
-117.37
-116.607
-112.464
-107.975
-103.802
-101.775
-100.806
-99.516
-98.179
-96.643
-95.021
-93.608
-92.251
-90.841
-89.45
-88.102
-86.77
-85.415
-84.03
-82.619
-81.22
-79.908
-78.684
-77.522
-76.416
-75.341
-74.27
-73.191
-72.051
-70.76
-69.291
-67.648
-65.883
-64.125
-62.464
-60.957
-59.662
-58.592
-57.776
-57.269
-57.111
-57.326
-57.951
-59.002
-60.521
-62.609
-65.294
-68.55
-72.3
-76.364
-80.578
-84.812
-88.922
-92.8
-96.376
-99.576
-102.341
-104.661
-106.515
-107.897
-108.84
-109.346
-109.441
-109.211
-108.776
-108.299
-108.022
-108.246
-109.157
-110.815
-113.058
-115.476
-117.75
-119.701
-121.03
-121.355
-120.434
-118.19
-115.148
-112.488
-111.067
-111.245
-113.147
-116.518
-120.963
-126.079
-130.457
-131.621
-127.219
-115.24
-94.307
-63.971
-23.769
27.17
88.828
160.039
238.948
321.916
404.648
484.219
558.089
626.342
691.152
751.004
800.141
827.193
819.086
770.477
686.573
582.244
473.76
371.291
277.514
189.732
107.259
33.143
-28.41
-73.728
-102.672
-117.55
-120.383
-113.566
-99.9
-82.7
-66.07
-52.619
-42.845
-36.777
-34.397
-35.593
-40.388
-47.56
-54.526
-59.813
-63.188
-64.699
-64.797
-63.612
-60.637
-56.296
-51.985
-48.522
-46.318
-45.498
-45.652
-46.661
-48.831
-52.032
-55.771
-59.664
-63.272
-66.315
-68.835
-70.78
-72.017
-72.518
-72.275
-71.309
-69.733
-67.624
-65.007
-61.924
-58.4
-54.466
-50.195
-45.66
-40.933
-36.095
-31.194
-26.256
-21.307
-16.358
-11.418
-6.485
-1.537
3.46
8.529
13.688
18.944
24.307
29.798
35.438
41.246
47.241
53.432
59.827
66.432
73.253
80.288
87.533
94.978
102.61
110.413
118.373
126.475
134.699
143.027
151.439
159.908
168.401
176.902
185.388
193.832
202.211
210.478
218.577
226.486
234.183
241.591
248.643
255.278
261.422
267.067
272.234
276.856
280.839
284.306
287.408
290.01
292.097
293.683
294.362
295.17
297.116
298.736
299.584
296.982
287.728
275.38
262.314
252.07
249.505
250.36
251.033
249.066
240.382
227.953
214.792
201.598
190.228
179.669
168.609
157.351
145.766
133.991
122.345
110.695
98.942
87.18
75.46
63.81
52.274
40.901
29.734
18.832
8.259
-1.968
-11.835
-21.312
-30.38
-39.02
-47.214
-54.954
-62.234
-69.045
-75.384
-81.249
-86.641
-91.565
-96.027
-100.036
-103.603
-106.74
-109.463
-111.787
-113.73
-115.312
-116.554
-117.477
-118.103
-118.457
-118.561
-118.439
-118.115
-117.612
-116.953
-116.16
-115.254
-114.257
-113.188
-112.064
-110.905
-109.724
-108.538
-107.358
-106.198
-105.067
-103.975
-102.93
-101.94
-101.008
-100.142
-99.344
-98.618
-97.965
-97.386
-96.882
-96.451
-96.092
-95.802
-95.578
-95.417
-95.314
-95.264
-95.262
-95.303
-95.382
-95.494
-95.633
-95.794
-95.971
-96.161
-96.359
-96.561
-96.764
-96.964
-97.159
-97.347
-97.526
-97.695
-97.853
-97.999
-98.132
-98.251
-98.357
-98.448
-98.525
-98.587
-98.634
-98.666
-98.685
-98.689
-98.68
-98.659
-98.626
-98.582
-98.529
-98.466
-98.395
-98.318
-98.234
-98.145
-98.051
-97.953
-97.852
-97.748
-97.64
-97.528
-97.412
-97.291
-97.163
-97.029
-96.887
-96.737
-96.579
-96.411
-96.234
-96.048
-95.854
-95.651
-95.442
-95.227
-95.007
-94.784
-94.558
-94.332
-94.107
-93.886
-93.669
-93.458
-93.256
-93.064
-92.883
-92.714
-92.56
-92.421
-92.298
-92.193
-92.108
-92.043
-92
-91.979
-91.982
-92.009
-92.06
-92.135
-92.233
-92.352
-92.49
-92.646
-92.816
-92.995
-93.18
-93.365
-93.544
-93.714
-93.866
-93.995
-94.092
-94.152
-94.167
-94.13
-94.034
-93.872
-93.637
-93.323
-92.924
-92.434
-91.849
-91.163
-90.373
-89.473
-88.462
-87.338
-86.099
-84.744
-83.275
-81.692
-79.997
-78.197
-76.296
-74.302
-72.226
-70.081
-67.879
-65.636
-63.367
-61.088
-58.817
-56.57
-54.359
-52.202
-50.113
-48.11
-46.214
-44.443
-42.813
-41.342
-40.043
-38.93
-38.017
-37.312
-36.815
-36.527
-36.457
-36.618
-37.036
-37.726
-38.691
-39.932
-41.441
-43.204
-45.204
-47.407
-49.759
-52.206
-54.7
-57.203
-59.698
-62.148
-64.498
-66.671
-68.575
-70.136
-71.315
-72.085
-72.422
-72.322
-71.804
-70.927
-69.79
-68.501
-67.149
-65.812
-64.57
-63.518
-62.769
-62.503
-62.966
-64.276
-66.372
-69.017
-71.783
-74.275
-76.202
-77.145
-76.473
-73.773
-69.12
-63.202
-57.309
-52.533
-49.359
-48.039
-48.966
-52.364
-57.633
-62.946
-65.199
-61.252
-48.975
-26.93
6.494
53.044
113.478
186.945
270.518
360.229
452.75
544.963
632.585
710.292
773.009
816.494
838.526
838.431
815.207
768.629
700.938
616.371
520.321
418.911
317.386
220.384
133.498
61.524
6.798
-30.278
-51.063
-58.259
-54.52
-42.836
-27.542
-12.832
-1.412
5.272
7.111
4.894
-0.594
-8.337
-16.546
-23.324
-27.526
-28.729
-27.237
-23.819
-19.148
-13.809
-8.557
-4.159
-1.048
0.618
0.944
0.253
-1.237
-3.365
-5.933
-8.779
-11.765
-14.741
-17.58
-20.163
-22.347
-24.033
-25.15
-25.631
-25.477
-24.707
-23.378
-21.592
-19.379
-16.761
-13.766
-10.396
-6.685
-2.688
1.557
6.006
10.597
15.298
20.073
24.889
29.765
34.724
39.806
45.075
50.529
56.158
61.964
67.939
74.088
80.424
86.938
93.619
100.482
107.531
114.776
122.229
129.867
137.668
145.61
153.661
161.816
170.069
178.405
186.81
195.267
203.754
212.258
220.764
229.239
237.651
245.963
254.139
262.15
269.966
277.553
284.878
291.905
298.597
304.921
310.845
316.333
321.353
325.873
329.864
333.3
336.161
338.427
340.08
341.104
341.486
341.218
340.293
338.708
336.461
333.555
329.995
325.79
320.953
315.499
309.445
302.814
295.629
287.917
279.707
271.03
261.922
252.416
242.552
232.367
221.901
211.197
200.294
189.236
178.064
166.819
155.544
144.278
133.062
121.934
110.931
100.088
89.44
79.019
68.853
58.971
49.398
40.158
31.272
22.758
14.631
6.906
-0.407
-7.298
-13.762
-19.795
-25.395
-30.565
-35.305
-39.623
-43.524
-47.019
-50.117
-52.831
-55.175
-57.163
-58.812
-60.138
-61.16
-61.895
-62.363
-62.583
-62.575
-62.358
-61.952
-61.377
-60.65
-59.791
-58.817
-57.747
-56.596
-55.382
-54.12
-52.824
-51.51
-50.189
-48.875
-47.579
-46.312
-45.083
-43.901
-42.774
-41.71
-40.714
-39.793
-38.95
-38.192
-37.52
-36.939
-36.45
-36.055
-35.755
-35.551
-35.442
-35.428
-35.51
-35.684
-35.951
-36.308
-36.755
-37.288
-37.906
-38.607
-39.388
-40.245
-41.176
-42.179
-43.249
-44.383
-45.578
-46.831
-48.138
-49.496
-50.901
-52.349
-53.837
-55.36
-56.914
-58.495
-60.098
-61.719
-63.354
-64.998
-66.647
-68.296
-69.941
-71.578
-73.203
-74.811
-76.398
-77.961
-79.495
-80.997
-82.463
-83.89
-85.274
-86.614
-87.907
-89.149
-90.34
-91.476
-92.558
-93.582
-94.549
-95.458
-96.308
-97.098
-97.831
-98.506
-99.125
-99.689
-100.201
-100.664
-101.079
-101.449
-101.779
-102.071
-102.33
-102.557
-102.757
-102.934
-103.092
-103.233
-103.362
-103.482
-103.596
-103.706
-103.817
-103.929
-104.046
-104.168
-104.296
-104.432
-104.575
-104.724
-104.878
-105.036
-105.195
-105.353
-105.507
-105.652
-105.784
-105.899
-105.99
-106.051
-106.077
-106.06
-105.992
-105.867
-105.678
-105.418
-105.08
-104.656
-104.142
-103.53
-102.814
-101.991
-101.055
-100.002
-98.83
-97.535
-96.118
-94.579
-92.918
-91.14
-89.249
-87.254
-85.164
-82.989
-80.742
-78.435
-76.082
-73.697
-71.295
-68.889
-66.492
-64.119
-61.786
-59.513
-57.319
-55.225
-53.249
-51.413
-49.734
-48.231
-46.919
-45.804
-44.893
-44.199
-43.738
-43.537
-43.614
-43.981
-44.644
-45.605
-46.853
-48.367
-50.108
-52.013
-54.023
-56.087
-58.16
-60.218
-62.226
-64.136
-65.891
-67.421
-68.669
-69.604
-70.202
-70.431
-70.3
-69.864
-69.221
-68.532
-67.941
-67.524
-67.361
-67.533
-68.122
-69.267
-71.098
-73.68
-77.111
-81.488
-86.753
-92.782
-99.263
-105.58
-111.154
-115.456
-117.865
-117.964
-115.771
-111.521
-105.858
-99.812
-94.014
-88.878
-84.943
-82.174
-79.719
-76.198
-69.492
-57.197
-37.769
-9.99
27.648
75.769
133.85
200.507
273.021
348.267
423.923
497.232
564.295
621.72
666.608
696.346
709.642
705.045
681.563
641.342
587.983
524.724
450.441
358.798
247.071
119.645
-6.902
-106.855
-164.954
-178.809
-159.797
-130.88
-106.458
-91.314
-84.548
-78.726
-70.177
-60.113
-50.747
-45.842
-47.395
-54.391
-64.304
-73.99
-81.586
-86.609
-89.054
-88.944
-85.942
-80.035
-72.193
-63.972
-56.481
-50.236
-45.348
-41.751
-39.659
-39.243
-40.239
-42.097
-44.331
-46.612
-48.8
-50.865
-52.635
-53.929
-54.681
-54.881
-54.581
-53.833
-52.635
-50.971
-48.86
-46.332
-43.431
-40.209
-36.7
-32.945
-28.997
-24.912
-20.749
-16.556
-12.353
-8.16
-3.978
0.203
4.394
8.616
12.896
17.259
21.723
26.312
31.043
35.931
40.993
46.242
51.693
57.355
63.234
69.333
75.649
82.178
88.911
95.835
102.935
110.192
117.589
125.105
132.719
140.409
148.148
155.909
163.666
171.386
179.038
186.588
194
201.236
208.259
215.032
221.516
227.674
233.467
238.859
243.814
248.299
252.279
255.726
258.609
260.904
262.585
263.634
264.031
263.763
262.818
261.189
258.87
255.861
252.166
247.79
242.742
237.038
230.692
223.725
216.16
208.022
199.341
190.149
180.479
170.369
159.858
148.986
137.797
126.333
114.64
102.763
90.748
78.641
66.488
54.333
42.222
30.197
18.301
6.574
-4.946
-16.22
-27.215
-37.898
-48.239
-58.212
-67.791
-76.955
-85.686
-93.967
-101.785
-109.131
-115.996
-122.377
-128.271
-133.679
-138.604
-143.052
-147.031
-150.553
-153.629
-156.274
-158.506
-160.34
-161.798
-162.9
-163.667
-164.121
-164.284
-164.182
-163.835
-163.269
-162.507
-161.571
-160.484
-159.268
-157.944
-156.532
-155.052
-153.521
-151.956
-150.373
-148.787
-147.21
-145.654
-144.131
-142.649
-141.216
-139.841
-138.527
-137.28
-136.103
-134.998
-133.966
-133.007
-132.12
-131.304
-130.557
-129.876
-129.258
-128.699
-128.197
-127.745
-127.341
-126.981
-126.659
-126.373
-126.118
-125.891
-125.689
-125.509
-125.35
-125.209
-125.084
-124.976
-124.882
-124.804
-124.739
-124.69
-124.656
-124.638
-124.639
-124.659
-124.7
-124.765
-124.856
-124.974
-125.121
-125.3
-125.513
-125.76
-126.044
-126.365
-126.726
-127.126
-127.566
-128.046
-128.565
-129.122
-129.714
-130.341
-130.998
-131.683
-132.392
-133.122
-133.869
-134.628
-135.397
-136.169
-136.942
-137.71
-138.469
-139.213
-139.937
-140.635
-141.302
-141.935
-142.53
-143.081
-143.586
-144.042
-144.446
-144.795
-145.089
-145.325
-145.501
-145.617
-145.673
-145.67
-145.608
-145.49
-145.317
-145.092
-144.819
-144.501
-144.14
-143.739
-143.298
-142.82
-142.308
-141.761
-141.18
-140.564
-139.916
-139.238
-138.533
-137.803
-137.048
-136.27
-135.47
-134.649
-133.804
-132.929
-132.015
-131.054
-130.041
-128.97
-127.837
-126.636
-125.358
-124.001
-122.564
-121.044
-119.437
-117.726
-115.888
-113.912
-111.803
-109.571
-107.24
-104.828
-102.345
-99.815
-97.274
-94.739
-92.22
-89.703
-87.147
-84.535
-81.869
-79.168
-76.478
-73.818
-71.179
-68.548
-65.904
-63.221
-60.485
-57.654
-54.649
-51.449
-48.067
-44.571
-41.097
-37.739
-34.549
-31.568
-28.795
-26.253
-24.005
-22.1
-20.587
-19.541
-19.022
-19.124
-19.997
-21.705
-24.244
-27.539
-31.408
-35.692
-40.286
-45.085
-50.01
-54.99
-59.909
-64.663
-69.172
-73.312
-76.973
-80.041
-82.351
-83.797
-84.371
-84.112
-83.16
-81.707
-79.9
-77.89
-75.853
-73.922
-72.245
-71.021
-70.473
-70.742
-71.816
-73.502
-75.443
-77.31
-78.842
-79.67
-79.202
-77.024
-73.243
-68.497
-63.978
-60.845
-59.628
-60.685
-64.572
-71.284
-79.845
-88.313
-93.457
-91.814
-81.044
-59.15
-23.878
26.065
90.7
168.762
256.779
350.302
445.688
538.776
624.169
697.023
753.169
788.829
802.604
794.39
763.277
711.422
643.406
562.096
472.138
376.632
276.889
180.624
95.234
27.34
-17.498
-43.648
-56.36
-60.818
-63.267
-63.722
-63.242
-63.751
-64.769
-67.986
-74.084
-81.674
-90.129
-97.988
-103.128
-104.763
-102.603
-96.616
-87.607
-76.503
-64.104
-51.398
-39.372
-28.576
-19.313
-11.728
-5.706
-1.148
2.031
3.975
4.799
4.562
3.264
0.951
-2.259
-6.147
-10.408
-14.76
-18.948
-22.786
-26.143
-28.922
-31.073
-32.585
-33.48
-33.77
-33.442
-32.455
-30.732
-28.24
-24.989
-21.043
-16.514
-11.523
-6.203
-0.659
5.032
10.815
16.673
22.61
28.65
34.814
41.116
47.548
54.075
60.674
67.329
74.039
80.828
87.726
94.776
102.018
109.484
117.191
125.143
133.33
141.731
150.318
159.057
167.919
176.884
185.927
195.028
204.16
213.29
222.381
231.39
240.272
248.98
257.466
265.683
273.589
281.143
288.306
295.044
301.323
307.109
312.37
317.073
321.188
324.687
327.544
329.735
331.24
332.042
332.129
331.494
330.13
328.037
325.217
321.678
317.429
312.484
306.861
300.58
293.666
286.146
278.049
269.411
260.267
250.659
240.627
230.216
219.473
208.443
197.176
185.718
174.119
162.427
150.687
138.948
127.254
115.651
104.181
92.886
81.805
70.976
60.433
50.207
40.33
30.825
21.717
13.025
4.768
-3.042
-10.392
-17.275
-23.685
-29.62
-35.08
-40.069
-44.593
-48.662
-52.286
-55.479
-58.258
-60.641
-62.645
-64.292
-65.6
-66.595
-67.3
-67.741
-67.94
-67.922
-67.705
-67.318
-66.79
-66.132
-65.358
-64.484
-63.516
-62.486
-61.43
-60.351
-59.246
-58.17
-57.162
-56.258
-55.502
-54.875
-54.328
-53.898
-53.65
-53.434
-53.078
-52.687
-52.253
-51.741
-51.532
-50.593
-47.914
-44.928
-42.067
-41.963
-47.768
-55.985
-64.28
-69.181
-65.922
-58.71
-51.112
-45.568
-46.117
-49.865
-53.876
-57.495
-58.931
-59.218
-59.686
-60.077
-60.56
-61.042
-61.253
-61.367
-61.526
-61.683
-61.826
-61.973
-62.122
-62.262
-62.39
-62.48
-62.504
-62.476
-62.409
-62.299
-62.149
-61.961
-61.733
-61.471
-61.181
-60.864
-60.52
-60.152
-59.763
-59.357
-58.938
-58.51
-58.076
-57.642
-57.211
-56.787
-56.375
-55.981
-55.607
-55.259
-54.94
-54.654
-54.406
-54.2
-54.038
-53.925
-53.864
-53.857
-53.91
-54.024
-54.204
-54.451
-54.769
-55.161
-55.63
-56.177
-56.804
-57.514
-58.307
-59.184
-60.145
-61.19
-62.319
-63.529
-64.82
-66.189
-67.632
-69.147
-70.73
-72.376
-74.081
-75.841
-77.649
-79.501
-81.391
-83.313
-85.262
-87.23
-89.21
-91.196
-93.179
-95.152
-97.105
-99.029
-100.917
-102.759
-104.546
-106.268
-107.917
-109.482
-110.955
-112.327
-113.59
-114.735
-115.753
-116.638
-117.383
-117.984
-118.434
-118.73
-118.868
-118.847
-118.666
-118.325
-117.823
-117.163
-116.346
-115.376
-114.257
-112.996
-111.601
-110.08
-108.448
-106.719
-104.906
-103.029
-101.103
-99.146
-97.178
-95.216
-93.276
-91.374
-89.527
-87.755
-86.08
-84.522
-83.1
-81.832
-80.735
-79.824
-79.117
-78.622
-78.341
-78.278
-78.44
-78.84
-79.504
-80.449
-81.683
-83.208
-85.019
-87.106
-89.456
-92.04
-94.804
-97.696
-100.666
-103.669
-106.681
-109.669
-112.577
-115.336
-117.859
-120.074
-121.942
-123.434
-124.525
-125.207
-125.497
-125.448
-125.153
-124.722
-124.252
-123.843
-123.603
-123.637
-124.054
-125.02
-126.754
-129.369
-132.831
-136.914
-141.202
-145.27
-148.774
-151.254
-152.077
-150.818
-147.448
-142.509
-137.151
-132.546
-129.506
-128.726
-130.939
-136.449
-144.82
-154.354
-162.107
-164.875
-159.608
-143.394
-113.349
-66.794
-3.251
74.561
162.901
257.167
355.911
461.343
570.685
677.747
769.45
825.908
836.572
799.018
720.729
621.418
515.508
411.194
312.499
216.079
122.234
36.294
-36.744
-92.258
-129.15
-149.888
-157.651
-155.485
-146.555
-134.84
-124.259
-117.334
-115.172
-117.547
-123.414
-131.874
-141.92
-151.819
-159.756
-164.63
-166.04
-164.321
-160.335
-154.855
-148.523
-142.126
-136.42
-131.85
-128.631
-126.73
-125.899
-125.92
-126.615
-127.773
-129.207
-130.795
-132.418
-133.956
-135.274
-136.187
-136.556
-136.302
-135.372
-133.742
-131.399
-128.341
-124.612
-120.29
-115.449
-110.148
-104.433
-98.34
-91.926
-85.268
-78.451
-71.562
-64.663
-57.788
-50.966
-44.212
-37.53
-30.914
-24.338
-17.767
-11.173
-4.541
2.137
8.871
15.681
22.593
29.641
36.848
44.226
51.786
59.53
67.446
75.511
83.679
91.894
100.119
108.328
116.51
124.678
132.835
140.99
149.156
157.325
165.491
173.658
181.808
189.931
198.048
206.188
214.42
222.83
231.451
240.285
249.311
258.447
267.61
276.691
285.538
294.031
302.068
309.546
316.401
322.566
327.936
332.398
335.804
337.973
338.794
338.198
336.135
332.639
327.767
321.619
314.37
306.172
297.14
287.388
276.988
266.008
254.556
242.742
230.694
218.579
206.524
194.63
183
171.675
160.67
149.968
139.492
129.175
118.991
108.923
98.982
89.195
79.565
70.101
60.819
51.706
42.76
33.982
25.359
16.907
8.655
0.643
-7.063
-14.403
-21.339
-27.843
-33.9
-39.511
-44.67
-49.387
-53.679
-57.56
-61.042
-64.134
-66.842
-69.179
-71.164
-72.82
-74.174
-75.255
-76.09
-76.704
-77.121
-77.363
-77.451
-77.402
-77.23
-76.949
-76.575
-76.126
-75.62
-75.074
-74.504
-73.927
-73.357
-72.811
-72.3
-71.835
-71.425
-71.078
-70.802
-70.602
-70.484
-70.452
-70.508
-70.656
-70.896
-71.23
-71.657
-72.178
-72.79
-73.491
-74.279
-75.151
-76.102
-77.128
-78.225
-79.387
-80.609
-81.886
-83.211
-84.577
-85.977
-87.405
-88.851
-90.309
-91.769
-93.225
-94.668
-96.092
-97.49
-98.855
-100.182
-101.465
-102.7
-103.88
-105.003
-106.064
-107.058
-107.982
-108.834
-109.61
-110.307
-110.923
-111.456
-111.905
-112.268
-112.543
-112.73
-112.829
-112.84
-112.764
-112.603
-112.358
-112.034
-111.634
-111.162
-110.623
-110.023
-109.365
-108.655
-107.898
-107.099
-106.263
-105.394
-104.496
-103.575
-102.636
-101.683
-100.723
-99.759
-98.796
-97.84
-96.894
-95.965
-95.056
-94.171
-93.316
-92.496
-91.716
-90.981
-90.296
-89.665
-89.089
-88.573
-88.117
-87.721
-87.384
-87.1
-86.866
-86.68
-86.537
-86.434
-86.367
-86.333
-86.331
-86.361
-86.423
-86.51
-86.617
-86.733
-86.849
-86.956
-87.042
-87.092
-87.093
-87.033
-86.905
-86.706
-86.429
-86.063
-85.591
-84.989
-84.245
-83.354
-82.314
-81.12
-79.782
-78.317
-76.759
-75.163
-73.568
-71.99
-70.438
-68.897
-67.359
-65.821
-64.272
-62.701
-61.094
-59.427
-57.685
-55.87
-53.949
-51.874
-49.566
-46.904
-43.814
-40.276
-36.291
-31.901
-27.169
-22.158
-16.969
-11.727
-6.543
-1.526
3.233
7.67
11.683
15.157
17.947
19.863
20.785
20.665
19.494
17.328
14.258
10.39
5.879
0.925
-4.294
-9.612
-14.875
-19.963
-24.753
-29.125
-32.94
-36.037
-38.331
-39.811
-40.527
-40.603
-40.145
-39.268
-38.148
-37
-36.05
-35.519
-35.562
-36.337
-38.028
-40.65
-44.105
-48.186
-52.402
-56.264
-59.386
-61.165
-60.961
-58.629
-54.335
-48.63
-42.594
-36.942
-31.87
-27.863
-25.5
-24.481
-23.769
-21.368
-14.321
-0.456
21.417
52.933
95.959
151.236
218.379
295.212
377.813
462.873
547.59
627.819
698.489
755.056
793.73
812.444
810.744
787.924
743.318
679.56
602.425
516.062
424.029
327.138
222.823
116.958
20.769
-55.704
-101.646
-117.646
-113.987
-98.556
-80.411
-63.705
-46.341
-29.069
-12.088
4.119
16.446
23.147
23.734
18.67
10.353
1.729
-5.769
-11.728
-15.972
-18.373
-18.418
-15.876
-11.587
-7.092
-3.417
-0.955
0.266
0.438
-0.584
-2.956
-6.382
-10.245
-13.953
-17.098
-19.543
-21.338
-22.438
-22.765
-22.299
-21.071
-19.189
-16.768
-13.861
-10.486
-6.655
-2.395
2.23
7.134
12.234
17.446
22.716
28.016
33.321
38.614
43.884
49.121
54.338
59.563
64.812
70.095
75.414
80.769
86.173
91.647
97.208
102.871
108.645
114.533
120.54
126.668
132.916
139.28
145.749
152.311
158.953
165.667
172.439
179.257
186.105
192.965
199.819
206.645
213.423
220.126
226.73
233.205
239.524
245.657
251.574
257.244
262.638
267.722
272.468
276.844
280.82
284.365
287.452
290.054
292.144
293.7
294.7
295.123
294.955
294.18
292.788
290.772
288.125
284.847
280.939
276.407
271.257
265.503
259.158
252.24
244.77
236.772
228.273
219.302
209.891
200.073
189.885
179.364
168.55
157.483
146.205
134.759
123.188
111.535
99.844
88.158
76.519
64.969
53.547
42.294
31.245
20.437
9.902
-0.329
-10.227
-19.767
-28.925
-37.681
-46.017
-53.919
-61.375
-68.374
-74.912
-80.984
-86.589
-91.727
-96.403
-100.622
-104.393
-107.726
-110.632
-113.127
-115.226
-116.946
-118.306
-119.326
-120.027
-120.429
-120.554
-120.425
-120.063
-119.491
-118.73
-117.801
-116.726
-115.523
-114.214
-112.816
-111.345
-109.82
-108.254
-106.662
-105.056
-103.45
-101.853
-100.275
-98.726
-97.212
-95.741
-94.319
-92.95
-91.638
-90.386
-89.196
-88.069
-87.005
-86.003
-85.064
-84.185
-83.364
-82.601
-81.891
-81.234
-80.627
-80.067
-79.552
-79.08
-78.649
-78.257
-77.903
-77.586
-77.303
-77.055
-76.84
-76.658
-76.509
-76.391
-76.304
-76.248
-76.222
-76.227
-76.26
-76.323
-76.414
-76.534
-76.682
-76.858
-77.062
-77.295
-77.556
-77.847
-78.166
-78.515
-78.893
-79.3
-79.735
-80.198
-80.688
-81.205
-81.746
-82.311
-82.898
-83.507
-84.134
-84.777
-85.435
-86.106
-86.786
-87.475
-88.168
-88.865
-89.563
-90.259
-90.953
-91.642
-92.324
-92.996
-93.657
-94.303
-94.932
-95.54
-96.123
-96.677
-97.198
-97.682
-98.124
-98.52
-98.866
-99.157
-99.387
-99.552
-99.647
-99.668
-99.609
-99.466
-99.234
-98.909
-98.488
-97.967
-97.344
-96.615
-95.78
-94.836
-93.783
-92.618
-91.343
-89.957
-88.462
-86.859
-85.151
-83.345
-81.447
-79.467
-77.416
-75.306
-73.15
-70.963
-68.758
-66.551
-64.355
-62.18
-60.042
-57.955
-55.936
-54.003
-52.178
-50.475
-48.912
-47.504
-46.266
-45.214
-44.359
-43.701
-43.247
-43.008
-43.004
-43.267
-43.819
-44.668
-45.817
-47.261
-48.989
-50.988
-53.225
-55.643
-58.192
-60.821
-63.492
-66.189
-68.878
-71.501
-73.982
-76.224
-78.155
-79.738
-80.956
-81.8
-82.275
-82.414
-82.288
-82.012
-81.718
-81.518
-81.51
-81.785
-82.449
-83.619
-85.49
-88.321
-92.224
-97.115
-102.723
-108.578
-114.278
-119.552
-123.991
-126.959
-128.042
-127.287
-125.344
-123.45
-122.533
-122.842
-124.394
-127.352
-131.744
-136.912
-141.084
-141.282
-134.662
-119.488
-94.681
-59.001
-11.039
49.866
122.935
205.338
293.361
383.954
474.228
560.251
637.048
699.58
743.55
766.801
768.651
748.202
705.213
641.396
560.399
467.378
368.27
267.939
170.667
81.429
4.703
-56.443
-100.734
-129.003
-143.464
-146.199
-139.685
-127.379
-112.791
-99.21
-88.813
-82.118
-78.865
-78.715
-80.967
-84.55
-88.232
-90.56
-90.781
-89.098
-85.941
-81.878
-77.486
-73.191
-69.529
-67.15
-66.349
-67.096
-69.23
-72.403
-76.332
-80.85
-85.7
-90.614
-95.358
-99.663
-103.364
-106.401
-108.705
-110.24
-110.992
-110.928
-110.07
-108.496
-106.271
-103.466
-100.151
-96.363
-92.167
-87.64
-82.863
-77.929
-72.902
-67.817
-62.699
-57.567
-52.425
-47.281
-42.121
-36.913
-31.634
-26.265
-20.794
-15.216
-9.522
-3.694
2.282
8.418
14.721
21.194
27.837
34.653
41.637
48.782
56.076
63.502
71.047
78.696
86.434
94.244
102.107
110.003
117.91
125.804
133.659
141.447
149.138
156.7
164.1
171.305
178.281
184.995
191.413
197.5
203.224
208.554
213.457
217.905
221.867
225.319
228.235
230.593
232.373
233.556
234.129
234.078
233.394
232.071
230.107
227.5
224.254
220.375
215.875
210.766
205.064
198.788
191.961
184.609
176.76
168.445
159.697
150.552
141.047
131.222
121.116
110.771
100.23
89.534
78.725
67.848
56.943
46.052
35.217
24.476
13.868
3.43
-6.803
-16.798
-26.523
-35.948
-45.049
-53.799
-62.178
-70.165
-77.746
-84.905
-91.631
-97.917
-103.755
-109.142
-114.078
-118.564
-122.604
-126.204
-129.374
-132.124
-134.466
-136.414
-137.986
-139.196
-140.065
-140.611
-140.854
-140.816
-140.518
-139.981
-139.229
-138.282
-137.163
-135.894
-134.496
-132.988
-131.392
-129.726
-128.009
-126.257
-124.487
-122.713
-120.951
-119.211
-117.507
-115.848
-114.244
-112.702
-111.229
-109.831
-108.51
-107.271
-106.114
-105.04
-104.049
-103.14
-102.309
-101.553
-100.869
-100.252
-99.696
-99.195
-98.744
-98.334
-97.96
-97.614
-97.29
-96.979
-96.675
-96.372
-96.063
-95.742
-95.403
-95.042
-94.653
-94.231
-93.774
-93.278
-92.74
-92.157
-91.53
-90.856
-90.136
-89.37
-88.559
-87.706
-86.812
-85.881
-84.915
-83.92
-82.9
-81.86
-80.806
-79.744
-78.68
-77.621
-76.575
-75.548
-74.548
-73.583
-72.658
-71.782
-70.961
-70.202
-69.512
-68.895
-68.359
-67.908
-67.547
-67.281
-67.112
-67.045
-67.082
-67.223
-67.472
-67.828
-68.291
-68.859
-69.531
-70.305
-71.178
-72.145
-73.201
-74.342
-75.561
-76.851
-78.204
-79.612
-81.063
-82.55
-84.059
-85.581
-87.105
-88.618
-90.109
-91.566
-92.976
-94.328
-95.609
-96.809
-97.915
-98.916
-99.801
-100.56
-101.184
-101.665
-101.992
-102.16
-102.162
-101.994
-101.651
-101.131
-100.432
-99.552
-98.492
-97.255
-95.843
-94.262
-92.521
-90.63
-88.601
-86.449
-84.19
-81.842
-79.421
-76.946
-74.435
-71.905
-69.372
-66.854
-64.369
-61.939
-59.587
-57.333
-55.199
-53.204
-51.365
-49.703
-48.233
-46.964
-45.903
-45.062
-44.455
-44.114
-44.06
-44.308
-44.863
-45.725
-46.883
-48.325
-50.021
-51.921
-53.972
-56.119
-58.318
-60.541
-62.754
-64.905
-66.926
-68.728
-70.236
-71.414
-72.238
-72.692
-72.787
-72.549
-72.057
-71.445
-70.822
-70.293
-69.958
-69.902
-70.252
-71.163
-72.766
-75.242
-78.802
-83.478
-89.144
-95.528
-102.125
-108.438
-114.076
-118.474
-120.958
-121.238
-119.485
-116.311
-112.854
-110.047
-108.212
-107.689
-108.974
-111.947
-115.664
-118.237
-116.662
-108.089
-90.696
-62.7
-22.107
32.284
100.585
181.283
270.879
365.421
461.329
554.083
638.21
708.432
759.912
789.388
795.572
777.673
735.475
671.05
588.487
492.916
390.391
286.468
186.006
94.55
17.283
-43.007
-85.675
-111.507
-122.585
-121.447
-111.045
-95.575
-79.826
-65.969
-53.445
-43.175
-36.452
-35.986
-47.235
-67.897
-89.795
-105.469
-105.506
-89.895
-67.853
-46.513
-33.503
-30.606
-32.321
-35.352
-37.248
-37.216
-37.537
-39.069
-41.532
-44.783
-48.196
-51.483
-54.801
-58.058
-61.031
-63.599
-65.677
-67.185
-68.075
-68.291
-67.772
-66.547
-64.712
-62.345
-59.51
-56.254
-52.613
-48.646
-44.428
-40.038
-35.552
-31.021
-26.477
-21.944
-17.435
-12.953
-8.493
-4.029
0.476
5.052
9.719
14.495
19.39
24.425
29.618
34.99
40.555
46.328
52.315
58.524
64.96
71.623
78.506
85.602
92.895
100.373
108.023
115.83
123.777
131.846
140.015
148.262
156.563
164.888
173.209
181.491
189.702
197.803
205.76
213.534
221.086
228.377
235.369
242.022
248.3
254.162
259.574
264.5
268.907
272.764
276.042
278.714
280.757
282.152
282.882
282.933
282.295
280.963
278.933
276.207
272.789
268.689
263.919
258.493
252.432
245.758
238.499
230.684
222.346
213.522
204.249
194.568
184.523
174.156
163.515
152.645
141.594
130.409
119.138
107.83
96.531
85.287
74.144
63.145
52.332
41.743
31.417
21.388
11.688
2.345
-6.613
-15.163
-23.284
-30.96
-38.175
-44.919
-51.184
-56.965
-62.261
-67.072
-71.402
-75.26
-78.655
-81.597
-84.102
-86.185
-87.864
-89.158
-90.089
-90.677
-90.946
-90.92
-90.623
-90.08
-89.316
-88.356
-87.224
-85.943
-84.537
-83.028
-81.437
-79.783
-78.087
-76.366
-74.636
-72.914
-71.212
-69.543
-67.918
-66.346
-64.836
-63.394
-62.023
-60.729
-59.513
-58.377
-57.322
-56.347
-55.45
-54.63
-53.885
-53.21
-52.603
-52.058
-51.571
-51.136
-50.749
-50.405
-50.098
-49.824
-49.578
-49.355
-49.152
-48.965
-48.79
-48.625
-48.466
-48.31
-48.157
-48.004
-47.85
-47.695
-47.537
-47.379
-47.22
-47.062
-46.905
-46.751
-46.601
-46.456
-46.319
-46.189
-46.07
-45.962
-45.867
-45.788
-45.725
-45.681
-45.657
-45.656
-45.678
-45.726
-45.8
-45.902
-46.033
-46.193
-46.385
-46.608
-46.864
-47.154
-47.478
-47.837
-48.232
-48.662
-49.129
-49.631
-50.169
-50.742
-51.349
-51.99
-52.664
-53.37
-54.109
-54.878
-55.676
-56.503
-57.358
-58.238
-59.14
-60.063
-61.003
-61.958
-62.922
-63.891
-64.861
-65.827
-66.782
-67.722
-68.64
-69.531
-70.386
-71.199
-71.962
-72.669
-73.311
-73.882
-74.372
-74.775
-75.084
-75.293
-75.397
-75.388
-75.262
-75.014
-74.641
-74.139
-73.507
-72.741
-71.84
-70.805
-69.638
-68.34
-66.917
-65.374
-63.722
-61.97
-60.133
-58.225
-56.26
-54.256
-52.227
-50.192
-48.164
-46.159
-44.192
-42.28
-40.443
-38.702
-37.077
-35.584
-34.24
-33.063
-32.065
-31.261
-30.657
-30.254
-30.057
-30.08
-30.341
-30.868
-31.68
-32.781
-34.172
-35.85
-37.805
-40.019
-42.458
-45.065
-47.785
-50.573
-53.391
-56.215
-59.002
-61.682
-64.17
-66.379
-68.232
-69.695
-70.746
-71.348
-71.489
-71.182
-70.461
-69.442
-68.251
-66.986
-65.751
-64.65
-63.785
-63.352
-63.631
-64.767
-66.745
-69.331
-72.06
-74.567
-76.633
-77.925
-77.927
-76.282
-73.051
-68.978
-65.475
-63.68
-64.074
-66.811
-72.019
-79.649
-88.854
-97.547
-102.391
-100.086
-88.391
-65.979
-31.743
15.551
76.172
148.747
230.256
316.772
404.975
492.472
576.38
652.395
716.464
765.644
797.783
811.913
806.873
780.45
733.331
670.211
595.445
512.165
419.775
314.56
198.533
81.205
-22.105
-95.926
-132.798
-133.39
-106.811
-65.564
-21.557
11.846
26.51
20.748
-1.258
-27.596
-48.109
-58.177
-58.285
-54.494
-51.216
-49.58
-49.085
-47.471
-43.988
-39.51
-34.865
-31.052
-28.636
-27.547
-27.726
-29.081
-31.331
-34.233
-37.595
-41.242
-45.062
-48.951
-52.753
-56.282
-59.377
-61.919
-63.835
-65.082
-65.627
-65.456
-64.584
-63.06
-60.955
-58.338
-55.263
-51.775
-47.911
-43.725
-39.284
-34.663
-29.936
-25.157
-20.357
-15.557
-10.772
-6.004
-1.244
3.53
8.35
13.242
18.223
23.307
28.503
33.826
39.292
44.918
50.717
56.699
62.87
69.235
75.797
82.553
89.496
96.615
103.896
111.323
118.881
126.555
134.325
142.172
150.072
158.002
165.936
173.844
181.697
189.46
197.098
204.574
211.852
218.893
225.659
232.11
238.209
243.918
249.199
254.016
258.335
262.122
265.347
267.981
269.996
271.37
272.082
272.115
271.455
270.092
268.019
265.234
261.738
257.536
252.637
247.054
240.802
233.902
226.376
218.252
209.56
200.334
190.608
180.424
169.82
158.841
147.53
135.935
124.102
112.079
99.913
87.653
75.348
63.045
50.791
38.633
26.614
14.778
3.167
-8.183
-19.233
-29.95
-40.304
-50.266
-59.811
-68.918
-77.567
-85.744
-93.435
-100.632
-107.328
-113.521
-119.21
-124.399
-129.092
-133.299
-137.029
-140.296
-143.113
-145.498
-147.468
-149.044
-150.245
-151.095
-151.617
-151.835
-151.774
-151.459
-150.916
-150.172
-149.25
-148.176
-146.974
-145.668
-144.281
-142.834
-141.348
-139.842
-138.334
-136.842
-135.38
-133.962
-132.601
-131.307
-130.09
-128.956
-127.914
-126.968
-126.123
-125.38
-124.744
-124.214
-123.79
-123.472
-123.257
-123.144
-123.128
-123.205
-123.37
-123.618
-123.942
-124.337
-124.795
-125.309
-125.874
-126.481
-127.126
-127.8
-128.498
-129.213
-129.94
-130.673
-131.407
-132.138
-132.862
-133.575
-134.274
-134.957
-135.621
-136.265
-136.888
-137.487
-138.062
-138.612
-139.138
-139.638
-140.113
-140.564
-140.992
-141.397
-141.782
-142.148
-142.496
-142.83
-143.15
-143.46
-143.76
-144.054
-144.343
-144.63
-144.916
-145.204
-145.496
-145.793
-146.098
-146.411
-146.735
-147.069
-147.416
-147.776
-148.15
-148.539
-148.943
-149.362
-149.798
-150.251
-150.72
-151.206
-151.708
-152.226
-152.76
-153.307
-153.868
-154.44
-155.022
-155.613
-156.21
-156.812
-157.415
-158.017
-158.615
-159.205
-159.782
-160.344
-160.885
-161.4
-161.884
-162.333
-162.742
-163.104
-163.414
-163.666
-163.854
-163.971
-164.011
-163.968
-163.834
-163.604
-163.272
-162.833
-162.28
-161.608
-160.813
-159.89
-158.836
-157.646
-156.319
-154.852
-153.244
-151.497
-149.612
-147.591
-145.44
-143.163
-140.77
-138.271
-135.675
-132.996
-130.247
-127.443
-124.599
-121.731
-118.852
-115.978
-113.125
-110.311
-107.554
-104.874
-102.291
-99.825
-97.498
-95.329
-93.339
-91.542
-89.949
-88.571
-87.418
-86.504
-85.853
-85.483
-85.404
-85.625
-86.15
-86.971
-88.076
-89.432
-90.984
-92.679
-94.468
-96.308
-98.175
-100.039
-101.863
-103.602
-105.19
-106.571
-107.704
-108.553
-109.092
-109.308
-109.218
-108.903
-108.503
-108.152
-107.963
-107.993
-108.274
-108.88
-109.896
-111.427
-113.605
-116.486
-120.158
-124.793
-130.38
-136.749
-143.539
-149.994
-155.333
-159.029
-160.412
-158.803
-154.162
-146.745
-137.34
-127.635
-118.881
-111.713
-107.034
-105.408
-106.218
-108.241
-109.053
-104.71
-92.218
-69.371
-33.454
17.42
83.724
164.963
258.417
359.172
462.824
564.8
659.126
740.213
802.876
842.446
856.569
844.643
806.275
742.552
656.838
553.627
438.823
318.861
199.293
86.132
-14.224
-96.791
-158.203
-198.114
-219.494
-223.776
-211.755
-184.743
-142.229
-90.033
-38.88
2.554
24.264
24.223
10.295
-10.017
-27.748
-38.291
-44.635
-49.044
-53.146
-56.856
-57.448
-54.057
-47.581
-39.629
-32.264
-26.382
-22.075
-19.543
-18.824
-19.849
-22.392
-25.807
-29.378
-32.656
-35.345
-37.318
-38.552
-38.948
-38.467
-37.14
-34.986
-32.142
-28.809
-25.038
-20.837
-16.406
-11.887
-7.212
-2.577
2.011
7.246
12.067
15.279
18.427
21.569
28.212
43.925
64.537
85.574
99.994
96.42
79.748
60.128
46.528
52.275
74.842
102.622
128.349
143.007
146.501
146.62
146.994
150.478
157.759
165.935
174.014
182.22
190.401
198.926
207.891
216.92
225.876
234.792
243.605
252.239
260.689
268.952
277.021
284.925
292.646
300.12
307.306
314.175
320.691
326.819
332.524
337.765
342.509
346.73
350.402
353.499
355.998
357.878
359.12
359.71
359.634
358.883
357.451
355.333
352.53
349.044
344.881
340.051
334.567
328.445
321.706
314.371
306.469
298.027
289.077
279.654
269.794
259.536
248.919
237.984
226.776
215.337
203.71
191.942
180.075
168.154
156.222
144.321
132.491
120.774
109.206
97.826
86.666
75.762
65.144
54.84
44.877
35.28
26.07
17.265
8.88
0.929
-6.578
-13.634
-20.236
-26.381
-32.071
-37.309
-42.101
-46.457
-50.387
-53.903
-57.022
-59.759
-62.133
-64.164
-65.871
-67.276
-68.4
-69.265
-69.893
-70.307
-70.529
-70.582
-70.487
-70.267
-69.944
-69.537
-69.067
-68.553
-68.012
-67.462
-66.917
-66.39
-65.895
-65.442
-65.041
-64.699
-64.423
-64.218
-64.088
-64.034
-64.056
-64.154
-64.326
-64.567
-64.874
-65.242
-65.664
-66.136
-66.65
-67.2
-67.778
-68.378
-68.991
-69.61
-70.227
-70.834
-71.424
-71.988
-72.52
-73.014
-73.462
-73.861
-74.205
-74.489
-74.712
-74.87
-74.961
-74.986
-74.942
-74.833
-74.659
-74.422
-74.128
-73.78
-73.382
-72.942
-72.463
-71.954
-71.419
-70.866
-70.302
-69.733
-69.166
-68.607
-68.066
-67.547
-67.058
-66.606
-66.197
-65.839
-65.538
-65.298
-65.126
-65.025
-65.002
-65.058
-65.199
-65.425
-65.738
-66.14
-66.631
-67.209
-67.874
-68.622
-69.451
-70.356
-71.333
-72.377
-73.481
-74.641
-75.849
-77.098
-78.38
-79.687
-81.011
-82.341
-83.67
-84.987
-86.284
-87.55
-88.774
-89.947
-91.059
-92.099
-93.057
-93.924
-94.689
-95.343
-95.878
-96.285
-96.558
-96.689
-96.675
-96.51
-96.191
-95.717
-95.087
-94.301
-93.359
-92.263
-91.018
-89.627
-88.099
-86.44
-84.661
-82.776
-80.799
-78.747
-76.635
-74.481
-72.303
-70.118
-67.944
-65.796
-63.69
-61.644
-59.678
-57.814
-56.071
-54.467
-53.019
-51.742
-50.653
-49.765
-49.086
-48.617
-48.364
-48.336
-48.551
-49.034
-49.801
-50.852
-52.186
-53.797
-55.672
-57.795
-60.132
-62.625
-65.218
-67.864
-70.526
-73.178
-75.778
-78.257
-80.535
-82.526
-84.168
-85.435
-86.302
-86.741
-86.752
-86.349
-85.578
-84.563
-83.415
-82.226
-81.106
-80.141
-79.417
-79.111
-79.455
-80.566
-82.443
-84.883
-87.484
-89.922
-91.941
-93.146
-93.038
-91.215
-87.557
-82.606
-77.452
-73.018
-69.971
-68.776
-69.764
-73.205
-78.857
-85.174
-89.525
-89.154
-81.456
-64.449
-36.38
4.717
60.041
129.067
209.497
297.929
390.444
483.33
572.178
651.41
715.713
760.756
784.022
784.603
762.162
716.888
650.774
567.922
473.475
373.161
271.75
173.228
82.306
3.561
-59.767
-106.256
-136.336
-151.778
-153.979
-144.327
-125.938
-102.803
-79.021
-57.974
-41.248
-29.239
-22.712
-22.575
-28.406
-38.685
-51.006
-62.825
-72.978
-81.269
-87.278
-90.313
-90.15
-87.133
-82.406
-77.58
-73.509
-70.382
-68.327
-67.492
-67.993
-69.864
-72.746
-75.922
-78.88
-81.347
-83.19
-84.411
-84.985
-84.831
-83.949
-82.429
-80.369
-77.86
-74.954
-71.645
-67.935
-63.85
-59.442
-54.786
-49.961
-45.038
-40.065
-35.072
-30.087
-25.133
-20.227
-15.371
-10.547
-5.721
-0.87
4.019
8.959
13.964
19.055
24.26
29.597
35.076
40.707
46.495
52.455
58.609
64.963
71.512
78.253
85.166
92.229
99.415
106.674
113.946
121.189
128.369
135.466
142.486
149.421
156.264
163.019
169.662
176.181
182.579
188.833
194.929
200.876
206.687
212.424
218.18
223.99
229.864
235.796
241.729
247.619
253.422
259.03
264.354
269.305
273.772
277.687
280.985
283.552
285.265
285.962
285.436
283.563
280.276
275.498
269.217
261.413
252.061
241.257
229.126
215.779
201.363
186.003
169.818
153.012
135.825
118.494
101.29
84.415
68.01
52.251
37.287
23.265
10.351
-1.406
-12.014
-21.462
-29.769
-36.965
-43.087
-48.258
-52.662
-56.438
-59.722
-62.619
-65.177
-67.492
-69.662
-71.78
-73.954
-76.234
-78.626
-81.156
-83.843
-86.676
-89.633
-92.638
-95.563
-98.332
-100.894
-103.215
-105.295
-107.115
-108.642
-109.864
-110.77
-111.355
-111.632
-111.604
-111.268
-110.646
-109.77
-108.694
-107.497
-106.234
-104.936
-103.636
-102.348
-101.089
-99.879
-98.723
-97.62
-96.573
-95.586
-94.666
-93.824
-93.064
-92.381
-91.768
-91.212
-90.704
-90.236
-89.803
-89.396
-89.013
-88.65
-88.304
-87.98
-87.677
-87.392
-87.119
-86.854
-86.59
-86.324
-86.049
-85.761
-85.455
-85.128
-84.779
-84.405
-84.004
-83.577
-83.126
-82.651
-82.153
-81.632
-81.084
-80.517
-79.939
-79.341
-78.716
-78.061
-77.367
-76.649
-75.932
-75.203
-74.448
-73.715
-73.037
-72.445
-71.982
-71.62
-71.303
-71.069
-70.989
-70.9
-70.61
-70.24
-69.785
-69.208
-68.94
-67.835
-64.782
-61.374
-58.094
-57.865
-64.187
-73.184
-82.274
-87.612
-83.914
-75.849
-67.369
-61.185
-61.773
-65.924
-70.384
-74.426
-76.062
-76.437
-77.02
-77.523
-78.128
-78.727
-79.013
-79.174
-79.359
-79.509
-79.606
-79.662
-79.667
-79.602
-79.458
-79.201
-78.794
-78.247
-77.57
-76.756
-75.805
-74.718
-73.493
-72.138
-70.662
-69.071
-67.372
-65.577
-63.698
-61.749
-59.745
-57.699
-55.629
-53.549
-51.472
-49.413
-47.387
-45.411
-43.507
-41.694
-39.989
-38.411
-36.976
-35.7
-34.602
-33.693
-32.976
-32.457
-32.147
-32.064
-32.237
-32.692
-33.436
-34.475
-35.804
-37.413
-39.287
-41.392
-43.667
-46.051
-48.486
-50.925
-53.342
-55.7
-57.942
-59.996
-61.773
-63.201
-64.245
-64.884
-65.102
-64.905
-64.331
-63.462
-62.435
-61.399
-60.492
-59.837
-59.561
-59.79
-60.649
-62.317
-65.016
-68.849
-73.775
-79.579
-85.836
-92.123
-98.08
-103.169
-106.7
-108.18
-107.422
-104.818
-101.371
-98.026
-95.403
-94.081
-94.628
-97.268
-101.706
-106.461
-108.737
-105.558
-94.404
-72.782
-38.1
11.524
77.411
158.273
249.228
346.577
447.609
550.27
654.731
754.861
838.685
895.445
913.857
891.895
838.218
761.152
671.174
574.851
472.1
365.513
258.278
154.898
62.73
-13.435
-71.519
-111.019
-133.796
-142.471
-139.481
-128.245
-112.522
-95.712
-80.913
-69.851
-62.848
-59.702
-59.861
-62.26
-65.733
-68.977
-70.616
-70.186
-67.938
-64.3
-59.912
-55.375
-51.133
-47.765
-45.865
-45.631
-47.012
-49.795
-53.605
-58.162
-63.257
-68.622
-73.991
-79.102
-83.699
-87.634
-90.845
-93.28
-94.918
-95.733
-95.704
-94.87
-93.306
-91.085
-88.285
-84.967
-81.182
-77
-72.503
-67.78
-62.927
-58.004
-53.045
-48.079
-43.116
-38.166
-33.233
-28.297
-23.325
-18.294
-13.184
-7.982
-2.681
2.733
8.28
13.976
19.835
25.866
32.074
38.463
45.035
51.789
58.716
65.805
73.039
80.405
87.887
95.476
103.156
110.907
118.721
126.586
134.482
142.396
150.304
158.152
165.904
173.529
180.938
188.068
194.894
201.352
207.403
213.092
218.424
223.363
228.089
232.757
237.139
241.189
245.01
248.103
251.124
254.973
258.31
260.642
259.695
251.652
237.8
220.859
206.338
202.248
210.629
227.75
244.879
251.785
242.541
219.258
191.025
166.177
150.666
144.635
142.1
139.009
132.897
123.191
112.306
101.353
90.321
79.362
68.12
56.531
44.993
33.66
22.538
11.701
1.189
-8.99
-18.814
-28.289
-37.446
-46.279
-54.744
-62.817
-70.484
-77.73
-84.548
-90.929
-96.86
-102.339
-107.37
-111.958
-116.108
-119.83
-123.133
-126.028
-128.53
-130.653
-132.415
-133.834
-134.929
-135.719
-136.225
-136.469
-136.471
-136.254
-135.839
-135.247
-134.499
-133.616
-132.616
-131.518
-130.342
-129.102
-127.817
-126.5
-125.165
-123.827
-122.495
-121.181
-119.893
-118.64
-117.429
-116.264
-115.151
-114.094
-113.094
-112.154
-111.274
-110.456
-109.697
-108.998
-108.357
-107.77
-107.236
-106.75
-106.311
-105.913
-105.554
-105.231
-104.939
-104.676
-104.438
-104.222
-104.025
-103.844
-103.678
-103.523
-103.378
-103.243
-103.115
-102.996
-102.884
-102.781
-102.686
-102.601
-102.526
-102.463
-102.413
-102.379
-102.361
-102.362
-102.385
-102.431
-102.504
-102.607
-102.742
-102.913
-103.122
-103.372
-103.665
-104.005
-104.392
-104.83
-105.322
-105.867
-106.47
-107.13
-107.849
-108.627
-109.465
-110.362
-111.318
-112.329
-113.396
-114.515
-115.684
-116.9
-118.16
-119.46
-120.796
-122.164
-123.56
-124.978
-126.411
-127.854
-129.298
-130.737
-132.163
-133.566
-134.937
-136.268
-137.549
-138.77
-139.923
-140.996
-141.979
-142.863
-143.639
-144.296
-144.825
-145.217
-145.465
-145.561
-145.499
-145.274
-144.88
-144.315
-143.574
-142.655
-141.559
-140.284
-138.831
-137.201
-135.398
-133.425
-131.288
-128.997
-126.56
-123.992
-121.307
-118.523
-115.661
-112.739
-109.779
-106.801
-103.827
-100.876
-97.967
-95.118
-92.348
-89.682
-87.142
-84.75
-82.523
-80.482
-78.64
-77.016
-75.622
-74.467
-73.55
-72.88
-72.467
-72.335
-72.515
-73.025
-73.87
-75.049
-76.558
-78.382
-80.503
-82.879
-85.444
-88.133
-90.891
-93.674
-96.455
-99.177
-101.762
-104.116
-106.135
-107.751
-108.934
-109.661
-109.904
-109.675
-108.995
-107.931
-106.639
-105.259
-103.918
-102.75
-101.86
-101.367
-101.488
-102.509
-104.585
-107.677
-111.502
-115.563
-119.458
-122.909
-125.541
-126.765
-126.138
-123.722
-120.259
-117.142
-115.52
-115.83
-118.174
-122.7
-129.326
-137.168
-144.141
-146.904
-142.238
-128.052
-103.019
-65.905
-15.47
48.576
125.01
210.915
302.669
397.224
491.726
582.468
664.698
733.812
785.755
817.381
826.378
811.729
774.693
717.899
645.522
557.26
447.584
316.427
168.423
20.072
-99.231
-172.236
-193.752
-172.579
-137.078
-106.223
-88.553
-86.923
-88.906
-87.316
-81.621
-70.46
-60.126
-54.558
-53.517
-57.681
-64.216
-70.283
-74.989
-77.687
-78.751
-78.766
-77.574
-74.87
-70.871
-66.224
-61.889
-58.496
-56.15
-54.775
-54.328
-54.986
-56.817
-59.554
-62.676
-65.652
-68.149
-70.035
-71.287
-71.835
-71.594
-70.542
-68.734
-66.292
-63.325
-59.89
-56.004
-51.672
-46.922
-41.817
-36.442
-30.882
-25.219
-19.506
-13.775
-8.052
-2.355
3.309
8.943
14.57
20.227
25.935
31.707
37.551
43.472
49.487
55.62
61.888
68.307
74.888
81.635
88.553
95.647
102.914
110.347
117.935
125.664
133.519
141.489
149.56
157.714
165.935
174.201
182.489
190.777
199.038
207.244
215.365
223.368
231.22
238.889
246.339
253.534
260.439
267.019
273.237
279.06
284.454
289.385
293.823
297.74
301.107
303.902
306.101
307.684
308.637
308.944
308.596
307.587
305.911
303.569
300.563
296.901
292.592
287.648
282.086
275.924
269.186
261.896
254.083
245.777
237.012
227.823
218.248
208.327
198.1
187.61
176.901
166.015
154.996
143.889
132.738
121.584
110.47
99.438
88.525
77.771
67.21
56.877
46.804
37.02
27.551
18.422
9.656
1.27
-6.718
-14.294
-21.448
-28.168
-34.451
-40.291
-45.687
-50.641
-55.155
-59.236
-62.891
-66.13
-68.966
-71.412
-73.484
-75.197
-76.571
-77.623
-78.374
-78.844
-79.054
-79.024
-78.777
-78.332
-77.712
-76.935
-76.022
-74.992
-73.863
-72.652
-71.376
-70.05
-68.691
-67.31
-65.922
-64.539
-63.172
-61.831
-60.525
-59.262
-58.051
-56.896
-55.802
-54.775
-53.818
-52.931
-52.118
-51.378
-50.712
-50.117
-49.592
-49.135
-48.743
-48.412
-48.138
-47.918
-47.748
-47.624
-47.542
-47.499
-47.491
-47.515
-47.566
-47.643
-47.741
-47.856
-47.988
-48.132
-48.286
-48.448
-48.616
-48.787
-48.959
-49.131
-49.302
-49.467
-49.626
-49.775
-49.915
-50.047
-50.171
-50.288
-50.397
-50.498
-50.591
-50.68
-50.765
-50.848
-50.927
-51
-51.073
-51.15
-51.24
-51.347
-51.472
-51.614
-51.77
-51.948
-52.156
-52.4
-52.68
-52.995
-53.345
-53.733
-54.174
-54.672
-55.224
-55.815
-56.423
-57.038
-57.657
-58.282
-58.922
-59.557
-60.149
-60.667
-61.078
-61.381
-61.613
-61.775
-61.841
-61.784
-61.554
-61.191
-60.873
-60.597
-60.186
-59.45
-58.118
-56.189
-54.059
-51.912
-49.594
-47.21
-45.131
-43.94
-44.676
-47.672
-52.116
-57.282
-62.735
-67.968
-72.439
-75.167
-74.303
-68.88
-59.634
-47.724
-34.453
-20.872
-7.587
4.373
13.076
17.124
16.627
12.558
6.492
-0.393
-7.651
-14.697
-20.443
-23.832
-24.547
-23.072
-20.528
-17.775
-15.086
-12.62
-10.611
-9.477
-9.539
-10.722
-12.607
-14.835
-17.272
-19.924
-22.875
-26.081
-29.394
-32.738
-36.099
-39.488
-42.911
-46.294
-49.5
-52.403
-54.887
-56.875
-58.345
-59.273
-59.621
-59.395
-58.604
-57.294
-55.619
-53.736
-51.792
-49.948
-48.323
-47.051
-46.371
-46.601
-47.925
-50.284
-53.419
-56.91
-60.358
-63.46
-65.782
-66.566
-65.305
-62.262
-58.125
